0.470833
0.470833
0.479167
0.475000
0.479167
0.470833
0.470833
0.475000
0.475000
0.475000
0.479167
0.475000
0.470833
0.470833
0.470833
0.475000
0.475000
0.470833
0.475000
0.479167
0.479167
0.479167
0.475000
0.479167
0.479167
0.483333
0.479167
0.479167
0.479167
0.491667
0.366667
0.600000
0.491667
0.487500
0.491667
0.483333
0.483333
0.479167
0.479167
0.479167
0.483333
0.479167
0.483333
0.483333
0.483333
0.487500
0.504167
0.504167
0.495833
0.491667
0.487500
0.491667
0.650000
0.808333
0.479167
0.479167
0.475000
0.475000
0.479167
0.470833
0.475000
0.479167
0.475000
0.479167
0.479167
0.475000
0.479167
0.475000
0.479167
0.479167
0.479167
0.475000
0.475000
0.479167
0.483333
0.479167
0.479167
0.479167
0.479167
0.483333
0.483333
0.479167
0.483333
0.491667
0.487500
0.483333
0.483333
0.491667
0.495833
0.500000
0.487500
0.491667
0.487500
0.487500
0.491667
0.370833
0.591667
0.483333
0.475000
0.487500
0.483333
0.487500
0.479167
0.487500
0.483333
0.483333
0.475000
0.404167
0.579167
0.495833
0.491667
0.487500
0.487500
0.483333
0.479167
0.475000
0.479167
0.479167
0.479167
0.475000
0.475000
0.479167
0.475000
0.479167
0.283333
0.195833
0.183333
0.762500
0.483333
0.483333
0.479167
0.475000
0.479167
0.479167
0.483333
0.479167
0.483333
0.483333
0.483333
0.483333
0.483333
0.483333
0.483333
0.479167
0.487500
0.487500
0.483333
0.479167
0.479167
0.483333
0.483333
0.479167
0.483333
0.487500
0.483333
0.491667
0.504167
0.316667
0.295833
0.883333
0.491667
0.483333
0.487500
0.479167
0.479167
0.475000
0.479167
0.475000
0.470833
0.945833
0.475000
0.475000
0.945833
0.475000
0.475000
0.475000
0.475000
0.479167
0.475000
0.479167
0.479167
0.475000
0.479167
0.475000
0.479167
0.483333
0.483333
0.483333
0.487500
0.500000
0.491667
0.495833
0.491667
0.495833
0.495833
0.491667
0.500000
0.491667
0.491667
0.516667
0.537500
0.537500
0.525000
0.508333
0.508333
0.504167
0.500000
0.495833
0.491667
0.500000
0.495833
0.500000
0.512500
0.512500
0.508333
0.500000
0.500000
0.495833
0.491667
0.495833
0.495833
0.500000
0.491667
0.487500
0.491667
0.495833
0.495833
0.491667
0.500000
0.500000
0.495833
0.529167
0.566667
0.562500
0.541667
0.379167
0.804167
0.879167
0.504167
0.508333
0.495833
0.500000
0.487500
0.504167
0.508333
0.508333
0.504167
0.495833
0.508333
0.500000
0.500000
0.500000
0.487500
0.495833
0.491667
0.491667
0.491667
0.491667
0.495833
0.500000
0.495833
0.500000
0.504167
0.512500
0.525000
0.525000
0.525000
0.533333
0.529167
0.516667
0.504167
0.512500
0.500000
0.495833
0.495833
0.491667
0.491667
0.491667
0.491667
0.491667
0.491667
0.491667
0.287500
0.204167
0.495833
0.495833
0.495833
0.491667
0.487500
0.483333
0.487500
0.487500
0.483333
0.362500
0.604167
0.495833
0.487500
0.491667
0.487500
0.483333
0.487500
0.491667
0.491667
0.495833
0.491667
0.504167
0.508333
0.495833
0.500000
0.500000
0.504167
0.504167
0.495833
0.495833
0.495833
0.491667
0.495833
0.500000
0.491667
0.491667
0.495833
0.495833
0.500000
0.508333
0.500000
0.495833
0.508333
0.537500
0.541667
0.537500
0.529167
0.512500
0.512500
0.504167
0.508333
0.504167
0.504167
0.504167
0.508333
0.504167
0.508333
0.491667
0.500000
0.504167
0.508333
0.512500
0.508333
0.504167
0.500000
0.533333
0.550000
0.545833
0.541667
0.537500
0.529167
0.516667
0.516667
0.508333
0.508333
0.512500
0.508333
0.512500
0.520833
0.550000
0.558333
0.537500
0.550000
0.537500
0.537500
0.525000
0.525000
0.391667
0.516667
0.750000
0.554167
0.533333
0.533333
0.520833
0.516667
0.508333
0.504167
0.500000
0.504167
0.495833
0.500000
0.500000
0.500000
0.504167
0.500000
0.504167
0.500000
0.500000
0.508333
0.500000
0.508333
0.504167
0.508333
0.504167
0.504167
0.508333
0.512500
0.508333
0.508333
0.508333
0.512500
0.520833
0.254167
0.412500
0.879167
0.500000
0.504167
0.508333
0.504167
0.500000
0.495833
0.500000
0.495833
0.491667
0.500000
0.500000
0.504167
0.504167
0.495833
0.495833
0.500000
0.504167
0.500000
0.504167
0.500000
0.495833
0.500000
0.500000
0.508333
0.512500
0.504167
0.508333
0.512500
0.516667
0.516667
0.512500
0.508333
0.504167
0.666667
0.087500
0.770833
0.520833
0.512500
0.508333
0.512500
0.516667
0.516667
0.516667
0.512500
0.504167
0.504167
0.504167
0.504167
0.500000
0.500000
0.495833
0.495833
0.495833
0.491667
0.491667
0.491667
0.495833
0.495833
0.495833
0.500000
0.500000
0.500000
0.545833
0.558333
0.550000
0.541667
0.525000
0.525000
0.520833
0.520833
0.508333
0.508333
0.504167
0.508333
0.504167
0.512500
0.504167
0.516667
0.520833
0.512500
0.512500
0.512500
0.520833
0.516667
0.520833
0.520833
0.520833
0.525000
0.516667
0.516667
0.516667
0.525000
0.516667
0.520833
0.520833
0.516667
0.520833
0.516667
0.525000
0.516667
0.516667
0.408333
0.308333
0.250000
0.662500
0.545833
0.537500
0.525000
0.520833
0.533333
0.529167
0.533333
0.529167
0.533333
0.533333
0.520833
0.516667
0.512500
0.512500
0.520833
0.508333
0.508333
0.508333
0.508333
0.508333
0.508333
0.512500
0.516667
0.512500
0.512500
0.516667
0.516667
0.516667
0.520833
0.537500
0.541667
0.537500
0.537500
0.537500
0.525000
0.520833
0.537500
0.575000
0.583333
0.558333
0.554167
0.541667
0.545833
0.537500
0.525000
0.525000
0.516667
0.520833
0.516667
0.520833
0.520833
0.516667
0.516667
0.529167
0.525000
0.525000
0.525000
0.541667
0.558333
0.541667
0.537500
0.545833
0.541667
0.541667
0.537500
0.541667
0.529167
0.525000
0.529167
0.608333
0.620833
0.570833
0.695833
0.437500
0.570833
0.566667
0.545833
0.537500
0.529167
0.525000
0.520833
0.520833
0.525000
0.520833
0.520833
0.516667
0.512500
0.512500
0.508333
0.512500
0.512500
0.508333
0.516667
0.516667
0.516667
0.516667
0.450000
0.583333
0.529167
0.520833
0.525000
0.529167
0.533333
0.529167
0.529167
0.529167
0.533333
0.529167
0.537500
0.537500
0.541667
0.541667
0.541667
0.545833
0.566667
0.570833
0.562500
0.558333
0.541667
0.545833
0.541667
0.533333
0.537500
0.529167
0.541667
0.533333
0.533333
0.529167
0.529167
0.541667
0.533333
0.541667
0.545833
0.537500
0.537500
0.537500
0.533333
0.533333
0.537500
0.533333
0.537500
0.533333
0.533333
0.533333
0.533333
0.537500
0.545833
0.545833
0.545833
0.550000
0.558333
0.562500
0.554167
0.558333
0.554167
0.562500
0.587500
0.579167
0.558333
0.558333
0.558333
0.570833
0.558333
0.558333
0.554167
0.550000
0.541667
0.533333
0.533333
0.529167
0.220833
0.445833
0.387500
0.529167
0.525000
0.520833
0.520833
0.529167
0.529167
0.533333
0.529167
0.525000
0.520833
0.525000
0.520833
0.520833
0.516667
0.516667
0.516667
0.516667
0.516667
0.512500
0.516667
0.512500
0.520833
0.516667
0.525000
0.525000
0.529167
0.520833
0.520833
0.520833
0.520833
0.529167
0.533333
0.533333
0.533333
0.525000
0.529167
0.525000
0.529167
0.525000
0.537500
0.533333
0.541667
0.550000
0.570833
0.562500
0.558333
0.550000
0.545833
0.533333
0.533333
0.533333
0.529167
0.537500
0.533333
0.529167
0.529167
0.533333
0.525000
0.533333
0.529167
0.533333
0.533333
0.533333
0.529167
0.529167
0.562500
0.595833
0.595833
0.570833
0.562500
0.575000
0.562500
0.558333
0.550000
0.537500
0.541667
0.529167
0.450000
0.295833
0.316667
0.541667
0.529167
0.529167
0.520833
0.529167
0.525000
0.541667
0.529167
0.529167
0.533333
0.529167
0.525000
0.516667
0.516667
0.516667
0.516667
0.512500
0.512500
0.512500
0.516667
0.520833
0.512500
0.516667
0.512500
0.516667
0.512500
0.520833
0.529167
0.520833
0.529167
0.525000
0.533333
0.525000
0.529167
0.529167
0.533333
0.537500
0.537500
0.541667
0.529167
0.533333
0.533333
0.541667
0.550000
0.545833
0.541667
0.550000
0.566667
0.558333
0.545833
0.541667
0.541667
0.537500
0.537500
0.533333
0.525000
0.525000
0.520833
0.529167
0.525000
0.516667
0.520833
0.525000
0.525000
0.520833
0.525000
0.537500
0.541667
0.537500
0.537500
0.533333
0.533333
0.720833
0.916667
0.554167
0.541667
0.545833
0.541667
0.533333
0.541667
0.537500
0.541667
0.529167
0.529167
0.529167
0.520833
0.308333
0.729167
0.520833
0.516667
0.520833
0.516667
0.516667
0.508333
0.512500
0.516667
0.508333
0.512500
0.508333
0.512500
0.508333
0.508333
0.508333
0.512500
0.508333
0.512500
0.512500
0.508333
0.516667
0.512500
0.516667
0.516667
0.516667
0.379167
0.654167
0.529167
0.525000
0.529167
0.516667
0.520833
0.529167
0.525000
0.620833
0.162500
0.762500
0.508333
0.512500
0.512500
0.508333
0.508333
0.508333
0.508333
0.512500
0.504167
0.512500
0.508333
0.512500
0.512500
0.508333
0.504167
0.508333
0.508333
0.508333
0.508333
0.508333
0.504167
0.508333
0.508333
0.512500
0.516667
0.508333
0.520833
0.516667
0.516667
0.512500
0.512500
0.558333
0.595833
0.595833
0.583333
0.570833
0.554167
0.554167
0.545833
0.550000
0.541667
0.091667
0.487500
0.295833
0.395833
0.300000
0.516667
0.295833
0.225000
0.512500
0.508333
0.512500
0.512500
0.512500
0.512500
0.520833
0.508333
0.516667
0.541667
0.533333
0.545833
0.537500
0.520833
0.525000
0.529167
0.525000
0.508333
0.516667
0.508333
0.512500
0.516667
0.508333
0.512500
0.512500
0.516667
0.525000
0.525000
0.516667
0.520833
0.941667
0.100000
0.529167
0.520833
0.529167
0.529167
0.533333
0.525000
0.520833
0.520833
0.520833
0.516667
0.516667
0.516667
0.512500
0.516667
0.512500
0.516667
0.516667
0.516667
0.516667
0.516667
0.512500
0.504167
0.508333
0.512500
0.512500
0.512500
0.516667
0.516667
0.516667
0.516667
0.516667
0.516667
0.512500
0.520833
0.520833
0.512500
0.520833
0.520833
0.516667
0.562500
0.587500
0.575000
0.558333
0.545833
0.541667
0.533333
0.533333
0.533333
0.520833
0.387500
0.658333
0.529167
0.516667
0.516667
0.516667
0.512500
0.520833
0.525000
0.525000
0.525000
0.579167
0.670833
0.654167
0.575000
0.566667
0.587500
0.570833
0.554167
0.541667
0.679167
0.391667
0.545833
0.525000
0.533333
0.525000
0.516667
0.525000
0.529167
0.533333
1.054167
0.545833
0.570833
0.558333
0.725000
0.216667
0.195833
0.462500
1.041667
0.516667
0.516667
0.516667
0.512500
0.508333
0.508333
0.516667
0.512500
0.516667
0.520833
0.512500
0.520833
0.529167
0.537500
0.541667
0.525000
0.525000
0.520833
0.520833
0.516667
0.516667
0.508333
0.512500
0.508333
0.508333
0.512500
0.508333
0.516667
0.508333
0.520833
0.545833
0.554167
0.541667
0.541667
0.550000
0.537500
0.529167
0.545833
0.541667
0.545833
0.533333
0.529167
0.525000
0.529167
0.520833
0.525000
0.525000
0.525000
0.520833
0.525000
0.525000
0.525000
0.525000
0.520833
0.520833
0.525000
0.525000
0.525000
0.537500
0.529167
0.545833
0.608333
0.612500
0.583333
0.570833
0.558333
0.537500
0.545833
0.545833
0.554167
0.545833
0.550000
0.537500
0.533333
0.541667
0.529167
0.529167
0.520833
0.525000
0.525000
0.525000
0.529167
0.533333
0.525000
0.529167
0.529167
0.537500
0.533333
0.541667
0.537500
0.541667
0.550000
0.550000
0.562500
0.550000
0.545833
0.554167
0.550000
0.545833
0.554167
0.545833
0.550000
0.554167
0.554167
0.566667
0.554167
0.554167
0.558333
0.554167
0.554167
0.554167
0.545833
0.545833
0.554167
0.550000
0.554167
0.554167
0.550000
0.550000
0.554167
0.550000
0.545833
0.554167
0.545833
0.550000
0.545833
0.541667
0.550000
0.550000
0.545833
0.541667
0.550000
0.550000
0.550000
0.545833
0.562500
0.558333
0.562500
0.600000
0.600000
0.595833
0.595833
0.575000
0.566667
0.570833
