0.941667
0.933333
0.475000
0.879167
1.062500
0.583333
0.233333
0.362500
0.354167
0.316667
0.362500
0.370833
0.341667
0.341667
0.341667
0.350000
0.341667
0.366667
0.395833
0.375000
0.358333
0.354167
0.341667
0.325000
0.400000
0.370833
0.325000
0.316667
1.341667
0.462500
0.362500
0.325000
0.320833
0.354167
0.345833
0.383333
0.383333
0.362500
0.358333
0.354167
0.358333
0.370833
0.362500
0.354167
1.533333
0.462500
0.362500
0.325000
0.325000
0.370833
0.379167
0.370833
0.362500
0.366667
0.362500
0.358333
0.570833
0.625000
1.475000
0.475000
0.366667
0.325000
0.325000
0.366667
0.354167
0.350000
0.387500
0.370833
0.333333
0.304167
1.504167
0.470833
0.362500
0.329167
0.362500
0.383333
0.354167
0.350000
0.362500
1.645833
0.458333
0.416667
0.375000
0.350000
0.375000
0.404167
0.400000
0.387500
0.604167
0.400000
0.550000
1.191667
1.437500
1.033333
1.020833
0.466667
0.583333
0.666667
1.012500
1.395833
0.483333
0.345833
0.341667
0.420833
0.387500
0.337500
0.366667
1.404167
0.929167
0.933333
1.420833
0.491667
0.625000
0.804167
0.700000
0.541667
0.704167
0.308333
0.370833
0.358333
0.366667
0.400000
0.420833
0.258333
0.487500
0.350000
0.354167
0.366667
0.366667
0.345833
0.341667
0.354167
0.325000
0.304167
0.383333
0.450000
0.379167
0.350000
0.341667
0.354167
0.387500
0.408333
0.445833
0.458333
0.404167
0.379167
0.362500
0.341667
0.375000
0.375000
0.391667
0.408333
0.375000
0.337500
0.366667
0.366667
0.408333
0.387500
0.350000
0.341667
0.325000
0.345833
0.333333
0.366667
0.362500
0.354167
0.604167
0.383333
0.333333
0.354167
0.379167
0.350000
0.358333
0.383333
0.350000
0.337500
0.358333
0.350000
0.333333
0.362500
0.454167
0.404167
0.683333
0.266667
0.345833
0.341667
0.350000
0.379167
0.379167
0.354167
0.341667
0.366667
0.387500
0.375000
0.370833
0.354167
0.329167
0.345833
0.370833
0.362500
0.366667
0.375000
0.391667
0.366667
0.341667
0.358333
0.387500
0.383333
0.370833
0.412500
0.387500
0.362500
0.375000
0.412500
0.400000
0.354167
0.337500
0.358333
0.325000
0.379167
0.437500
0.383333
0.345833
0.358333
0.370833
0.345833
0.408333
0.387500
0.362500
0.325000
0.333333
0.350000
0.491667
0.379167
0.350000
0.354167
0.333333
0.358333
0.366667
0.325000
0.329167
0.354167
0.383333
0.375000
1.879167
1.308333
1.283333
1.062500
1.145833
1.116667
1.025000
1.000000
0.950000
0.808333
1.537500
0.908333
0.858333
1.395833
0.995833
0.966667
1.016667
0.866667
0.804167
0.991667
1.200000
0.491667
0.350000
0.370833
0.362500
0.375000
0.370833
0.354167
0.370833
0.383333
0.412500
1.137500
0.895833
1.245833
0.595833
0.229167
0.662500
1.137500
0.466667
0.341667
0.350000
0.425000
0.579167
0.558333
0.295833
0.312500
0.354167
0.366667
0.366667
0.354167
0.245833
0.445833
0.345833
0.358333
0.350000
0.366667
0.379167
0.366667
0.345833
0.354167
0.391667
0.383333
0.333333
0.408333
0.400000
0.366667
0.354167
0.350000
0.354167
0.358333
0.354167
0.350000
0.370833
0.362500
0.350000
0.358333
0.375000
0.358333
0.354167
0.362500
0.366667
0.358333
0.354167
0.362500
0.366667
0.358333
0.354167
0.362500
0.366667
0.362500
0.354167
0.362500
0.362500
0.362500
0.354167
0.362500
0.362500
0.362500
0.366667
0.362500
0.358333
0.366667
0.362500
0.362500
0.366667
0.362500
0.362500
0.358333
0.362500
0.366667
0.350000
0.370833
0.370833
0.333333
0.345833
0.395833
0.391667
0.375000
0.375000
0.383333
0.341667
0.337500
0.370833
0.416667
0.250000
0.475000
0.350000
0.345833
0.375000
0.395833
0.379167
0.370833
0.379167
0.345833
0.354167
0.379167
0.379167
0.475000
0.375000
1.258333
1.375000
1.058333
1.233333
1.033333
1.075000
0.958333
0.929167
0.895833
1.445833
1.029167
0.779167
1.037500
0.800000
1.304167
0.483333
0.354167
0.429167
0.391667
0.341667
0.350000
0.345833
0.358333
1.383333
1.091667
0.475000
0.333333
0.300000
0.341667
0.362500
0.354167
0.333333
0.329167
0.341667
0.241667
0.595833
0.375000
0.329167
0.350000
0.358333
0.362500
0.366667
0.350000
0.350000
0.354167
0.350000
0.362500
0.541667
0.383333
0.437500
0.375000
0.329167
0.362500
0.391667
0.366667
0.350000
0.333333
0.341667
0.329167
0.350000
0.358333
0.420833
0.404167
0.391667
0.400000
0.370833
0.362500
0.341667
0.375000
0.362500
0.350000
0.412500
0.379167
0.333333
0.350000
0.370833
0.354167
0.345833
0.341667
0.441667
0.354167
0.308333
0.400000
0.375000
0.366667
0.400000
0.366667
0.370833
0.558333
0.420833
0.437500
0.462500
1.300000
1.087500
1.137500
1.100000
1.216667
1.037500
1.012500
0.979167
1.058333
0.941667
0.883333
0.900000
1.245833
0.487500
0.341667
0.316667
0.329167
0.358333
1.445833
0.470833
0.333333
0.308333
0.316667
0.337500
0.337500
0.329167
0.341667
0.387500
0.387500
0.379167
0.366667
0.366667
0.391667
0.358333
0.329167
0.325000
0.350000
0.354167
0.362500
0.370833
0.370833
0.358333
0.370833
0.575000
0.300000
0.354167
0.337500
0.354167
0.375000
0.362500
0.350000
0.358333
0.341667
0.329167
0.345833
0.350000
0.350000
0.354167
0.620833
0.370833
0.420833
0.675000
0.275000
0.325000
0.362500
0.370833
0.366667
0.362500
0.375000
0.370833
0.354167
0.370833
0.420833
0.387500
0.345833
0.354167
0.408333
0.245833
0.495833
0.370833
0.358333
0.362500
0.237500
0.441667
0.354167
0.495833
0.383333
0.362500
0.483333
0.358333
0.300000
0.337500
0.370833
0.375000
0.379167
0.391667
0.375000
0.341667
0.341667
0.370833
0.370833
0.379167
0.387500
0.366667
0.370833
0.354167
0.362500
0.358333
0.395833
0.337500
0.312500
0.337500
0.233333
0.479167
0.387500
0.329167
0.366667
0.437500
0.408333
0.366667
0.316667
0.333333
0.366667
0.366667
0.404167
0.412500
0.387500
0.362500
0.320833
0.325000
0.354167
0.391667
0.366667
0.362500
0.362500
0.350000
0.325000
0.400000
1.604167
1.004167
0.987500
1.004167
0.975000
0.950000
0.987500
1.295833
1.079167
0.962500
0.920833
0.912500
1.341667
1.087500
0.970833
0.945833
0.945833
0.916667
0.770833
0.941667
0.966667
1.187500
0.595833
0.241667
0.333333
0.370833
0.258333
0.520833
0.429167
0.375000
0.341667
0.337500
0.341667
0.345833
0.350000
0.358333
0.345833
0.337500
0.341667
0.358333
0.354167
0.341667
0.345833
0.358333
0.354167
0.345833
0.345833
0.687500
0.379167
0.600000
0.537500
1.241667
0.458333
0.350000
0.333333
0.345833
0.379167
0.370833
0.362500
0.379167
0.366667
0.341667
0.345833
0.341667
0.341667
0.350000
0.358333
0.354167
0.358333
0.483333
0.383333
0.325000
0.354167
0.358333
0.362500
0.358333
0.370833
0.366667
0.354167
0.362500
0.358333
0.358333
0.354167
0.358333
0.341667
0.337500
0.341667
0.383333
0.375000
0.358333
0.379167
0.404167
0.441667
0.404167
0.370833
0.350000
0.345833
0.358333
1.525000
1.129167
1.283333
0.991667
1.016667
1.304167
0.470833
0.379167
0.383333
0.658333
1.433333
0.470833
0.333333
0.312500
0.325000
0.333333
0.366667
0.383333
1.395833
0.454167
0.350000
0.341667
0.441667
0.258333
0.500000
0.387500
0.345833
0.600000
1.487500
0.458333
0.354167
0.350000
0.345833
0.358333
0.250000
0.466667
0.358333
0.379167
0.358333
0.345833
0.366667
0.375000
0.650000
0.412500
0.720833
0.270833
0.329167
0.354167
0.358333
0.350000
0.362500
0.362500
0.358333
0.408333
0.379167
0.354167
0.362500
0.366667
0.354167
1.379167
1.387500
1.037500
1.225000
0.475000
0.333333
0.300000
0.737500
0.287500
0.354167
0.341667
1.562500
0.454167
0.354167
0.350000
0.350000
0.354167
0.345833
0.425000
0.700000
0.650000
0.316667
1.329167
0.454167
0.341667
0.316667
0.345833
0.412500
0.391667
0.420833
1.854167
0.466667
0.358333
0.370833
0.358333
0.391667
0.383333
0.350000
0.354167
0.358333
0.354167
0.362500
0.362500
0.362500
0.362500
0.358333
0.366667
0.366667
0.362500
0.362500
0.362500
0.362500
0.370833
0.358333
0.366667
0.366667
0.362500
0.362500
0.370833
0.366667
0.366667
0.362500
0.362500
1.583333
0.475000
0.379167
0.620833
1.025000
0.454167
0.358333
0.320833
0.358333
0.370833
0.950000
1.050000
0.441667
0.341667
0.316667
0.312500
0.395833
0.375000
0.350000
0.354167
0.362500
0.358333
0.358333
0.358333
0.337500
0.345833
0.391667
0.379167
0.362500
0.379167
0.383333
0.366667
0.354167
0.354167
0.358333
0.379167
0.404167
0.383333
0.241667
0.420833
0.358333
0.370833
0.362500
0.350000
0.362500
0.454167
0.533333
0.441667
0.387500
0.408333
0.562500
0.441667
0.425000
0.491667
0.416667
0.370833
0.337500
0.320833
0.416667
0.400000
0.391667
0.350000
0.350000
0.341667
0.345833
0.350000
0.358333
0.375000
0.354167
0.358333
0.358333
0.454167
0.391667
0.366667
0.358333
0.337500
0.358333
0.366667
0.337500
0.358333
0.358333
0.391667
0.387500
0.241667
0.470833
0.383333
0.387500
0.366667
0.366667
0.337500
0.370833
0.379167
0.350000
0.370833
0.375000
0.462500
0.429167
0.375000
0.366667
0.341667
0.379167
0.366667
0.333333
0.333333
0.379167
0.354167
0.337500
0.341667
0.358333
0.366667
0.375000
0.333333
0.333333
0.362500
0.366667
0.358333
0.375000
0.420833
0.379167
0.362500
0.354167
0.345833
0.375000
0.387500
0.379167
0.341667
0.395833
0.366667
0.370833
0.358333
0.233333
0.525000
0.362500
0.358333
0.333333
0.333333
0.354167
0.233333
1.937500
0.975000
0.950000
0.958333
1.354167
1.183333
0.983333
0.929167
0.908333
1.383333
1.058333
0.950000
0.900000
1.450000
0.491667
0.354167
0.395833
0.383333
0.370833
0.404167
0.370833
0.350000
0.362500
0.354167
0.345833
0.241667
0.458333
0.354167
0.366667
0.366667
0.345833
0.362500
0.366667
0.350000
0.345833
0.329167
0.358333
0.383333
0.354167
0.241667
0.483333
0.391667
0.391667
0.379167
0.370833
0.362500
0.362500
0.370833
0.375000
0.366667
0.358333
0.366667
0.362500
0.362500
0.458333
0.408333
0.358333
0.337500
0.341667
0.354167
0.341667
0.345833
0.379167
0.379167
0.375000
0.408333
0.504167
0.395833
0.379167
0.245833
0.462500
0.358333
0.370833
0.416667
0.437500
0.370833
0.433333
0.383333
0.362500
0.383333
0.420833
0.712500
0.283333
0.354167
0.325000
0.312500
0.345833
0.358333
0.475000
0.733333
0.262500
0.312500
0.312500
0.345833
0.237500
0.487500
0.379167
0.370833
0.358333
0.354167
0.366667
0.375000
0.370833
0.362500
0.354167
0.354167
0.375000
0.391667
0.566667
0.437500
0.370833
0.358333
0.358333
0.341667
0.358333
0.366667
0.320833
0.370833
0.391667
0.358333
0.337500
0.391667
0.412500
0.370833
1.662500
1.108333
1.137500
1.008333
0.995833
1.320833
0.991667
1.045833
0.829167
1.487500
1.029167
0.895833
1.387500
0.987500
1.320833
0.491667
0.341667
0.333333
0.600000
0.166667
0.779167
0.541667
1.729167
0.591667
0.233333
0.341667
0.316667
0.250000
0.716667
0.287500
0.325000
1.370833
0.454167
0.345833
0.329167
0.395833
0.383333
0.250000
0.670833
0.470833
0.416667
1.312500
0.450000
0.350000
0.345833
0.387500
0.379167
0.366667
0.358333
0.350000
0.354167
0.354167
0.366667
0.370833
0.245833
0.437500
0.379167
0.370833
0.362500
0.362500
0.370833
0.375000
0.370833
0.333333
0.350000
0.366667
0.366667
0.358333
0.350000
0.383333
0.408333
0.433333
0.383333
0.375000
0.375000
0.483333
0.375000
0.329167
0.700000
0.283333
0.408333
0.383333
0.404167
0.358333
0.316667
0.341667
0.375000
0.383333
0.437500
0.375000
0.350000
0.345833
0.358333
0.358333
0.345833
0.370833
0.362500
0.425000
0.383333
0.350000
0.370833
0.370833
0.566667
0.450000
0.391667
0.333333
0.337500
0.333333
0.333333
0.387500
0.379167
0.366667
0.362500
0.370833
0.241667
0.479167
0.358333
0.358333
0.425000
0.458333
0.345833
0.304167
0.354167
0.400000
0.383333
0.325000
0.316667
0.383333
0.350000
0.362500
0.350000
0.341667
0.354167
0.370833
0.237500
0.512500
0.379167
0.370833
0.350000
0.345833
0.345833
0.383333
0.366667
0.358333
0.341667
0.358333
0.366667
0.375000
0.520833
1.679167
1.170833
1.358333
1.083333
1.366667
1.079167
1.254167
1.037500
1.000000
1.000000
1.012500
0.987500
0.979167
0.970833
0.945833
0.945833
1.000000
0.879167
0.845833
1.004167
1.195833
0.487500
0.350000
0.366667
0.362500
0.366667
0.633333
0.287500
0.345833
0.350000
0.345833
0.345833
0.345833
0.345833
0.345833
0.345833
0.337500
0.345833
0.354167
0.354167
0.350000
0.354167
0.358333
0.329167
0.354167
0.366667
0.354167
0.350000
0.358333
0.358333
0.341667
0.358333
0.695833
0.379167
0.629167
1.800000
