0.550000
0.550000
0.550000
0.550000
0.550000
0.550000
0.550000
0.545833
0.550000
0.550000
0.550000
0.550000
0.550000
0.550000
0.550000
0.554167
0.545833
0.550000
0.550000
0.550000
0.550000
0.550000
0.550000
0.550000
0.554167
0.541667
0.550000
0.550000
0.554167
0.550000
0.545833
0.550000
0.554167
0.550000
0.550000
0.550000
0.554167
0.554167
0.545833
0.554167
0.550000
0.554167
0.550000
0.550000
0.550000
0.550000
0.554167
0.545833
0.550000
0.550000
0.554167
0.550000
0.550000
0.550000
0.550000
0.550000
0.545833
0.550000
0.554167
0.554167
0.541667
0.554167
0.550000
0.554167
0.550000
0.550000
0.550000
0.554167
0.554167
0.545833
0.550000
0.554167
0.554167
0.554167
0.545833
0.554167
0.554167
0.554167
0.550000
0.554167
0.554167
0.554167
0.554167
0.550000
0.554167
0.554167
0.554167
0.545833
0.554167
0.554167
0.558333
0.550000
0.550000
0.550000
0.554167
0.550000
0.554167
0.550000
0.550000
0.550000
0.550000
0.550000
0.550000
0.554167
0.545833
0.545833
0.554167
0.550000
0.545833
0.554167
0.550000
0.550000
0.545833
0.554167
0.550000
0.554167
0.545833
0.550000
0.554167
0.550000
0.550000
0.550000
0.550000
0.550000
0.550000
0.550000
0.550000
0.550000
0.550000
0.550000
0.550000
0.550000
0.554167
0.366667
0.691667
0.579167
0.562500
0.554167
0.554167
0.550000
0.550000
0.550000
0.550000
0.545833
0.550000
0.550000
0.550000
0.550000
0.550000
0.550000
0.550000
0.554167
0.545833
0.550000
0.554167
0.550000
0.550000
0.550000
0.550000
0.554167
0.550000
0.550000
0.554167
0.550000
0.558333
0.554167
0.550000
0.554167
0.558333
0.554167
0.550000
0.550000
0.554167
0.554167
0.550000
0.550000
0.554167
0.554167
0.550000
0.550000
0.554167
0.554167
0.554167
0.550000
0.550000
0.554167
0.558333
0.554167
0.550000
0.554167
0.554167
0.558333
0.550000
0.554167
0.554167
0.558333
0.554167
0.554167
0.554167
0.558333
0.554167
0.554167
0.554167
0.558333
0.554167
0.550000
0.558333
0.554167
0.558333
0.554167
0.554167
0.554167
0.554167
0.554167
0.550000
0.554167
0.550000
0.554167
0.550000
0.554167
0.554167
0.554167
0.554167
0.545833
0.554167
0.550000
0.554167
0.550000
0.550000
0.554167
0.554167
0.554167
0.545833
0.554167
0.554167
0.554167
0.554167
0.550000
0.554167
0.558333
0.554167
0.550000
0.554167
0.558333
0.558333
0.554167
0.550000
0.558333
0.554167
0.558333
0.550000
0.554167
0.554167
0.558333
0.550000
0.550000
0.554167
0.554167
0.554167
0.550000
0.550000
0.554167
0.554167
0.554167
0.550000
0.554167
0.554167
0.554167
0.550000
0.554167
0.554167
0.554167
0.558333
0.545833
0.554167
0.558333
0.554167
0.550000
0.550000
0.554167
0.554167
0.550000
0.550000
0.550000
0.554167
0.554167
0.545833
0.550000
0.550000
0.554167
0.554167
0.545833
0.550000
0.554167
0.550000
0.550000
0.550000
0.550000
0.550000
0.545833
0.550000
0.550000
0.550000
0.554167
0.550000
0.550000
0.545833
0.554167
0.550000
0.545833
0.554167
0.554167
0.554167
0.550000
0.550000
0.550000
0.554167
0.554167
0.550000
0.554167
0.550000
0.558333
0.554167
0.550000
0.558333
0.554167
0.554167
0.550000
0.558333
0.554167
0.558333
0.554167
0.550000
0.554167
0.554167
0.554167
0.550000
0.554167
0.550000
0.554167
0.550000
0.550000
0.554167
0.550000
0.550000
0.550000
0.550000
0.550000
0.550000
0.545833
0.550000
0.550000
0.550000
0.550000
0.545833
0.550000
0.550000
0.550000
0.545833
0.545833
0.554167
0.550000
0.545833
0.550000
0.550000
0.550000
0.541667
0.550000
0.550000
0.554167
0.550000
0.545833
0.550000
0.554167
0.554167
0.545833
0.554167
0.554167
0.554167
0.550000
0.554167
0.550000
0.554167
0.545833
0.554167
0.550000
0.554167
0.550000
0.550000
0.550000
0.550000
0.554167
0.545833
0.554167
0.550000
0.554167
0.545833
0.554167
0.554167
0.550000
0.545833
0.554167
0.554167
0.550000
0.550000
0.550000
0.550000
0.554167
0.550000
0.545833
0.554167
0.550000
0.558333
0.550000
0.550000
0.554167
0.554167
0.550000
0.550000
0.550000
0.554167
0.550000
0.545833
0.550000
0.554167
0.550000
0.545833
0.550000
0.550000
0.550000
0.545833
0.550000
0.554167
0.554167
0.550000
0.550000
0.554167
0.554167
0.554167
0.550000
0.554167
0.558333
0.554167
0.550000
0.554167
0.554167
0.558333
0.550000
0.558333
0.554167
0.558333
0.558333
0.554167
0.558333
0.562500
0.558333
0.550000
0.558333
0.558333
0.558333
0.554167
0.566667
0.558333
0.558333
0.558333
0.558333
0.558333
0.558333
0.558333
0.554167
0.558333
0.554167
0.558333
0.554167
0.550000
0.554167
0.554167
0.554167
0.550000
0.554167
0.550000
0.558333
0.550000
0.550000
0.554167
0.554167
0.554167
0.550000
0.554167
0.554167
0.558333
0.554167
0.550000
0.554167
0.554167
0.550000
0.554167
0.554167
0.550000
0.550000
0.554167
0.550000
0.554167
0.550000
0.550000
0.554167
0.550000
0.550000
0.550000
0.554167
0.554167
0.545833
0.550000
0.554167
0.554167
0.545833
0.554167
0.550000
0.554167
0.550000
0.545833
0.550000
0.550000
0.550000
0.550000
0.550000
0.550000
0.554167
0.545833
0.550000
0.554167
0.550000
0.550000
0.550000
0.550000
0.554167
0.554167
0.545833
0.554167
0.550000
0.554167
0.550000
0.550000
0.550000
0.545833
0.320833
0.229167
0.550000
0.550000
0.550000
0.550000
0.545833
0.550000
0.550000
0.545833
0.550000
0.550000
0.545833
0.550000
0.545833
0.550000
0.550000
0.545833
0.550000
0.550000
0.550000
0.545833
0.545833
0.550000
0.554167
0.550000
0.545833
0.550000
0.550000
0.545833
0.554167
0.550000
0.554167
0.541667
0.550000
0.550000
0.550000
0.550000
0.550000
0.545833
0.545833
0.554167
0.550000
0.550000
0.545833
0.550000
0.554167
0.550000
0.545833
0.554167
0.554167
0.550000
0.550000
0.550000
0.550000
0.554167
0.550000
0.550000
0.550000
0.550000
0.370833
0.479167
0.712500
0.562500
0.554167
0.550000
0.550000
0.554167
0.550000
0.545833
0.550000
0.550000
0.554167
0.545833
0.550000
0.550000
0.550000
0.550000
0.541667
0.545833
0.550000
0.550000
0.545833
0.541667
0.550000
0.545833
0.545833
0.541667
0.545833
0.550000
0.541667
0.545833
0.545833
0.545833
0.541667
0.550000
0.545833
0.550000
0.545833
0.545833
0.545833
0.550000
0.550000
0.545833
0.545833
0.550000
0.550000
0.550000
0.545833
0.550000
0.550000
0.554167
0.545833
0.550000
0.550000
0.554167
0.554167
0.545833
0.550000
0.554167
0.554167
0.550000
0.550000
0.554167
0.554167
0.554167
0.550000
0.554167
0.554167
0.554167
0.554167
0.550000
0.554167
0.554167
0.554167
0.550000
0.554167
0.554167
0.558333
0.554167
0.554167
0.554167
0.558333
0.558333
0.554167
0.554167
0.554167
0.554167
0.550000
0.554167
0.554167
0.550000
0.550000
0.550000
0.545833
0.550000
0.550000
0.550000
0.545833
0.550000
0.545833
0.550000
0.545833
0.545833
0.550000
0.545833
0.550000
0.545833
0.550000
0.545833
0.550000
0.550000
0.550000
0.550000
0.550000
0.545833
0.554167
0.550000
0.550000
0.545833
0.545833
0.554167
0.550000
0.545833
0.550000
0.545833
0.554167
0.550000
0.545833
0.550000
0.550000
0.550000
0.550000
0.550000
0.550000
0.554167
0.550000
0.550000
0.550000
0.554167
0.545833
0.550000
0.554167
0.550000
0.550000
0.550000
0.550000
0.554167
0.545833
0.550000
0.550000
0.554167
0.550000
0.545833
0.550000
0.550000
0.545833
0.550000
0.545833
0.550000
0.541667
0.545833
0.545833
0.550000
0.541667
0.545833
0.550000
0.545833
0.550000
0.545833
0.545833
0.550000
0.550000
0.545833
0.545833
0.545833
0.550000
0.545833
0.550000
0.550000
0.550000
0.545833
0.545833
0.550000
0.550000
0.550000
0.545833
0.550000
0.550000
0.550000
0.545833
0.545833
0.554167
0.550000
0.545833
0.550000
0.550000
0.550000
0.545833
0.550000
0.550000
0.550000
0.550000
0.550000
0.554167
0.550000
0.550000
0.550000
0.550000
0.545833
0.554167
0.550000
0.550000
0.545833
0.554167
0.550000
0.550000
0.550000
0.550000
0.550000
0.550000
0.550000
0.550000
0.554167
0.545833
0.550000
0.554167
0.550000
0.550000
0.545833
0.550000
0.375000
0.479167
0.704167
0.558333
0.554167
0.545833
0.545833
0.550000
0.545833
0.545833
0.545833
0.550000
0.541667
0.545833
0.550000
0.545833
0.545833
0.545833
0.545833
0.545833
0.545833
0.545833
0.358333
0.737500
0.550000
0.545833
0.545833
0.550000
0.550000
0.541667
0.550000
0.554167
0.550000
0.550000
0.550000
0.550000
0.550000
0.554167
0.545833
0.550000
0.554167
0.545833
0.545833
0.550000
0.550000
0.379167
0.470833
0.708333
0.566667
0.554167
0.550000
0.550000
0.550000
0.550000
0.554167
0.545833
0.550000
0.550000
0.554167
0.545833
0.550000
0.550000
0.554167
0.550000
0.550000
0.554167
0.554167
0.554167
0.550000
0.550000
0.554167
0.550000
0.554167
0.545833
0.558333
0.550000
0.545833
0.550000
0.545833
0.545833
0.550000
0.550000
0.550000
0.545833
0.545833
0.550000
0.545833
0.545833
0.550000
0.545833
0.550000
0.545833
0.545833
0.550000
0.550000
0.541667
0.550000
0.545833
0.550000
0.550000
0.545833
0.545833
0.550000
0.550000
0.545833
0.550000
0.550000
0.554167
0.541667
0.554167
0.550000
0.554167
0.554167
0.550000
0.550000
0.554167
0.554167
0.550000
0.550000
0.554167
0.554167
0.550000
0.550000
0.554167
0.550000
0.554167
0.545833
0.550000
0.550000
0.550000
0.545833
0.550000
0.550000
0.545833
0.545833
0.550000
0.375000
0.445833
0.708333
0.562500
0.550000
0.545833
0.545833
0.545833
0.545833
0.545833
0.545833
0.545833
0.550000
0.541667
0.545833
0.545833
0.550000
0.545833
0.545833
0.545833
0.550000
0.395833
0.412500
0.741667
0.587500
0.558333
0.554167
0.550000
0.550000
0.554167
0.550000
0.550000
0.545833
0.554167
0.550000
0.545833
0.550000
0.550000
0.545833
0.545833
0.550000
0.545833
0.350000
0.691667
0.579167
0.562500
0.554167
0.545833
0.550000
0.545833
0.554167
0.545833
0.550000
0.550000
0.554167
0.550000
0.550000
0.554167
0.550000
0.554167
0.550000
0.550000
0.554167
0.554167
0.545833
0.554167
0.554167
0.554167
0.550000
0.550000
0.554167
0.554167
0.550000
0.550000
0.550000
0.550000
0.554167
0.545833
0.550000
0.554167
0.550000
0.550000
0.550000
0.554167
0.554167
0.545833
0.554167
0.554167
0.550000
0.550000
0.550000
0.554167
0.550000
0.545833
0.550000
0.554167
0.550000
0.545833
0.550000
0.545833
0.554167
0.550000
0.545833
0.550000
0.550000
0.550000
0.550000
0.550000
0.554167
0.550000
0.550000
0.554167
0.550000
0.550000
0.550000
0.550000
0.550000
0.554167
0.541667
0.554167
0.550000
0.550000
0.550000
0.550000
0.550000
0.550000
0.550000
0.550000
0.550000
0.550000
0.550000
0.550000
0.545833
0.550000
0.550000
0.545833
0.550000
0.550000
0.550000
0.545833
0.550000
0.550000
0.550000
0.550000
0.550000
0.550000
0.550000
0.550000
0.550000
0.550000
0.366667
0.691667
0.579167
0.562500
0.558333
0.545833
0.545833
0.554167
0.545833
0.550000
0.550000
0.550000
0.550000
