0.575000
0.570833
0.570833
0.620833
0.529167
0.566667
0.579167
0.612500
0.541667
0.608333
0.529167
0.620833
0.575000
0.575000
0.570833
0.566667
0.575000
0.570833
0.566667
0.570833
0.570833
0.558333
0.562500
0.558333
0.583333
0.591667
0.575000
0.537500
0.604167
0.566667
0.570833
0.570833
0.487500
0.637500
0.566667
0.329167
0.241667
0.550000
0.575000
0.566667
0.512500
0.591667
0.587500
0.579167
0.562500
0.570833
0.566667
0.566667
0.566667
0.566667
0.562500
0.566667
0.562500
0.562500
0.566667
0.562500
0.570833
0.545833
0.591667
0.545833
0.608333
0.554167
0.600000
0.733333
0.229167
0.533333
0.666667
0.566667
0.741667
0.579167
0.579167
0.570833
0.570833
0.575000
0.570833
0.570833
0.579167
0.575000
0.575000
0.579167
0.579167
0.708333
0.437500
0.575000
0.570833
0.570833
0.562500
0.566667
0.562500
0.558333
0.600000
0.570833
0.575000
0.570833
0.570833
0.575000
0.575000
0.570833
0.570833
0.575000
0.575000
0.575000
0.570833
0.579167
0.570833
0.579167
0.562500
0.562500
0.587500
0.595833
0.683333
0.370833
0.683333
0.570833
0.575000
0.579167
0.575000
0.575000
0.566667
0.570833
0.575000
0.554167
0.554167
0.587500
0.591667
0.575000
0.575000
0.570833
0.575000
0.558333
0.587500
0.533333
0.612500
0.570833
0.575000
0.566667
0.566667
0.558333
0.558333
0.587500
0.591667
1.141667
0.570833
0.529167
0.620833
0.575000
0.579167
0.570833
0.575000
0.566667
0.566667
0.575000
0.566667
0.566667
0.570833
0.566667
0.550000
0.591667
0.537500
0.595833
0.570833
0.558333
0.550000
0.583333
0.583333
0.566667
0.570833
0.570833
0.570833
0.562500
0.570833
0.566667
0.566667
0.566667
0.570833
0.520833
0.591667
0.562500
0.562500
0.587500
0.579167
0.570833
0.566667
0.570833
0.570833
0.562500
0.566667
0.575000
0.570833
0.566667
0.566667
0.566667
0.570833
0.570833
0.575000
0.566667
0.575000
0.570833
0.570833
0.570833
0.570833
0.566667
0.570833
0.545833
0.570833
0.554167
0.604167
0.570833
0.570833
0.570833
0.566667
0.570833
0.570833
0.570833
0.570833
0.570833
0.575000
0.575000
0.570833
0.570833
0.575000
0.579167
0.579167
0.575000
0.575000
0.575000
0.579167
0.570833
0.566667
0.570833
0.570833
0.570833
0.570833
0.570833
0.604167
0.575000
0.566667
0.570833
0.570833
0.570833
0.570833
0.570833
0.566667
0.570833
0.308333
0.262500
0.570833
0.566667
0.566667
0.241667
0.816667
0.916667
0.241667
0.537500
0.729167
0.245833
0.208333
0.350000
0.462500
0.779167
0.341667
0.250000
0.287500
0.300000
0.691667
0.566667
0.479167
0.566667
0.270833
0.383333
0.295833
0.166667
0.666667
0.562500
0.554167
0.520833
0.587500
0.529167
0.575000
0.595833
0.291667
0.287500
0.562500
0.562500
0.562500
0.558333
0.562500
0.562500
0.562500
0.558333
0.566667
0.550000
0.579167
0.537500
0.591667
0.566667
0.562500
0.558333
0.558333
0.533333
0.579167
0.604167
0.587500
0.570833
0.570833
0.575000
0.570833
0.570833
0.566667
0.575000
0.516667
0.620833
0.566667
0.562500
0.554167
0.562500
0.570833
0.558333
0.595833
0.566667
0.570833
0.566667
0.570833
0.545833
0.591667
0.570833
0.570833
0.570833
0.566667
0.570833
0.570833
0.575000
0.570833
0.566667
0.570833
0.570833
0.566667
0.554167
0.591667
0.570833
0.575000
0.570833
0.575000
0.570833
0.566667
0.575000
0.575000
0.575000
0.570833
0.575000
0.575000
0.575000
0.575000
0.570833
0.570833
0.575000
0.554167
0.575000
0.562500
0.600000
0.529167
0.620833
0.566667
0.387500
0.962500
0.504167
0.437500
0.566667
0.575000
0.220833
0.350000
0.575000
0.241667
0.329167
0.570833
0.550000
0.604167
0.520833
0.616667
0.570833
0.570833
0.570833
0.570833
0.566667
0.566667
0.575000
0.550000
0.566667
0.558333
0.587500
0.570833
0.566667
0.566667
0.566667
0.558333
0.566667
0.566667
0.566667
0.566667
0.545833
0.587500
0.570833
0.570833
0.566667
0.570833
0.554167
0.558333
0.595833
0.566667
0.562500
0.570833
0.558333
0.566667
0.566667
0.566667
0.558333
0.566667
0.566667
0.566667
0.562500
0.566667
0.566667
0.562500
0.570833
0.566667
0.562500
0.558333
0.554167
0.600000
0.566667
0.566667
0.570833
0.566667
0.566667
0.570833
0.575000
0.566667
0.570833
0.562500
0.570833
0.566667
0.566667
0.570833
0.566667
0.562500
0.562500
0.554167
0.587500
0.562500
0.566667
0.566667
0.570833
0.566667
0.570833
0.566667
0.566667
0.570833
0.566667
0.566667
0.570833
0.562500
0.570833
0.570833
0.562500
0.570833
0.566667
0.554167
0.558333
0.562500
0.587500
0.562500
0.566667
0.562500
0.562500
0.566667
0.558333
0.566667
0.562500
0.566667
0.562500
0.566667
0.566667
0.566667
0.558333
0.566667
0.566667
0.566667
0.562500
0.554167
0.583333
0.533333
0.320833
0.345833
0.504167
0.762500
0.362500
0.508333
0.612500
0.575000
0.562500
0.587500
0.566667
0.566667
0.566667
0.566667
0.562500
0.566667
0.566667
0.554167
0.579167
0.525000
0.608333
0.566667
0.570833
0.562500
0.570833
0.570833
0.566667
0.566667
0.566667
0.570833
0.566667
0.570833
0.566667
0.570833
0.566667
0.566667
0.525000
0.612500
0.570833
0.562500
0.570833
0.566667
0.562500
0.570833
0.566667
0.562500
0.566667
0.566667
0.570833
0.554167
0.575000
0.516667
0.604167
0.570833
0.558333
0.558333
0.545833
0.595833
0.570833
0.570833
0.566667
0.566667
0.570833
0.566667
0.566667
0.562500
0.558333
0.579167
0.512500
0.625000
0.570833
0.566667
0.570833
0.566667
0.570833
0.570833
0.291667
0.433333
0.400000
0.708333
0.237500
0.770833
0.254167
0.312500
0.570833
0.512500
0.429167
0.845833
0.491667
0.566667
0.566667
0.312500
0.254167
0.470833
0.662500
0.566667
0.566667
0.566667
0.566667
0.562500
0.558333
0.554167
0.591667
0.566667
0.566667
0.566667
0.566667
0.570833
0.566667
0.566667
0.562500
0.562500
0.566667
0.562500
0.566667
0.566667
0.566667
0.562500
0.545833
0.591667
0.516667
0.616667
0.516667
0.604167
0.529167
0.591667
0.566667
0.550000
0.550000
0.566667
0.579167
0.566667
0.562500
0.566667
0.566667
0.566667
0.562500
0.570833
0.562500
0.566667
0.566667
0.562500
0.566667
0.504167
0.625000
0.566667
0.562500
0.566667
0.566667
0.566667
0.558333
0.562500
0.558333
0.554167
0.554167
0.583333
0.562500
0.558333
0.537500
0.583333
0.566667
0.562500
0.562500
0.562500
0.562500
0.566667
0.566667
0.562500
0.562500
0.566667
0.566667
0.566667
0.566667
0.562500
0.558333
0.562500
0.562500
0.587500
0.562500
0.570833
0.566667
0.554167
0.575000
0.512500
0.625000
0.570833
0.570833
0.570833
0.570833
0.570833
0.575000
0.570833
0.575000
0.570833
0.537500
0.604167
0.579167
0.570833
0.566667
0.570833
0.570833
0.570833
0.575000
0.562500
0.566667
0.570833
0.570833
0.566667
0.566667
0.575000
0.570833
0.562500
0.566667
0.491667
0.595833
0.616667
0.600000
0.566667
0.570833
0.570833
0.216667
0.358333
0.570833
0.566667
0.566667
0.579167
0.525000
0.604167
0.566667
0.595833
0.575000
0.570833
0.575000
0.570833
0.570833
0.575000
0.570833
0.566667
0.575000
0.500000
0.633333
0.337500
0.729167
0.633333
0.570833
0.354167
0.216667
0.566667
0.554167
0.562500
0.595833
0.566667
0.362500
0.200000
0.566667
0.570833
0.566667
0.566667
0.562500
0.566667
0.566667
0.566667
0.566667
0.529167
0.604167
0.570833
0.562500
0.554167
0.558333
0.591667
0.566667
0.570833
0.566667
0.570833
0.570833
0.562500
0.562500
0.570833
0.558333
0.579167
0.525000
0.612500
0.570833
0.566667
0.554167
0.595833
0.570833
0.570833
0.570833
0.570833
0.570833
0.570833
0.570833
0.575000
0.570833
0.558333
0.583333
0.529167
0.616667
0.570833
0.570833
0.575000
0.570833
0.575000
0.566667
0.575000
0.575000
0.570833
0.562500
0.562500
0.575000
0.575000
0.545833
0.587500
0.541667
0.629167
0.570833
0.575000
0.575000
0.491667
0.650000
0.570833
0.570833
0.316667
0.266667
0.395833
0.283333
0.554167
0.475000
0.575000
0.575000
0.570833
0.575000
0.570833
0.566667
0.566667
0.566667
0.225000
0.204167
0.358333
0.566667
0.333333
0.216667
0.254167
0.704167
0.575000
0.566667
0.579167
0.570833
0.566667
0.570833
0.575000
0.562500
0.562500
0.562500
0.566667
0.504167
0.595833
0.587500
0.566667
0.566667
0.558333
0.550000
0.579167
0.558333
0.562500
0.562500
0.529167
0.595833
0.566667
0.566667
0.562500
0.566667
0.558333
0.566667
0.566667
0.550000
0.554167
0.550000
0.583333
0.562500
0.562500
0.562500
0.558333
0.562500
0.558333
0.562500
0.558333
0.562500
0.566667
0.558333
0.512500
0.379167
0.233333
0.566667
0.558333
0.570833
0.558333
0.558333
0.554167
0.554167
0.554167
0.366667
0.220833
0.558333
0.562500
0.566667
0.562500
0.562500
0.562500
0.558333
0.570833
0.566667
0.570833
0.562500
0.570833
0.562500
0.570833
0.570833
0.562500
0.566667
0.570833
0.570833
0.570833
0.558333
0.558333
0.570833
0.587500
0.558333
0.583333
0.537500
0.604167
0.508333
0.629167
0.570833
0.570833
0.566667
0.612500
0.529167
0.575000
0.570833
0.570833
0.570833
0.562500
0.575000
0.533333
0.608333
0.570833
0.566667
0.562500
0.566667
0.558333
0.587500
0.575000
0.575000
0.570833
0.566667
0.575000
0.575000
0.575000
0.575000
0.570833
0.575000
0.575000
0.570833
0.570833
0.570833
0.575000
0.562500
0.579167
0.558333
0.575000
0.525000
0.600000
0.554167
0.600000
0.587500
0.562500
0.575000
0.570833
0.575000
0.566667
0.575000
0.570833
0.570833
0.570833
0.570833
0.570833
0.566667
0.562500
0.583333
0.529167
0.620833
0.575000
0.575000
0.570833
0.566667
0.562500
0.604167
0.575000
0.575000
0.575000
0.579167
0.575000
0.575000
0.579167
0.545833
0.600000
0.504167
0.637500
0.575000
0.575000
0.575000
0.337500
0.220833
0.587500
0.370833
0.762500
0.212500
0.362500
0.570833
0.562500
0.566667
0.537500
0.595833
0.570833
0.566667
0.562500
0.566667
0.566667
0.487500
0.645833
0.550000
0.554167
0.566667
0.600000
0.566667
0.570833
0.562500
0.570833
0.566667
0.566667
0.566667
0.562500
0.566667
0.570833
0.566667
0.562500
0.566667
0.533333
0.587500
0.554167
0.587500
0.570833
0.566667
0.566667
0.570833
0.562500
0.566667
0.562500
0.558333
0.570833
0.500000
0.625000
0.562500
0.658333
0.475000
0.562500
0.558333
0.554167
0.587500
0.566667
0.570833
0.570833
0.570833
0.520833
0.625000
0.570833
0.570833
0.570833
0.570833
0.570833
0.566667
0.570833
0.566667
0.570833
0.566667
0.558333
0.550000
0.595833
0.566667
0.566667
0.570833
0.562500
0.566667
0.566667
0.566667
0.566667
0.562500
0.570833
0.566667
0.541667
0.595833
0.566667
0.566667
0.562500
0.558333
0.587500
0.570833
0.570833
0.570833
0.570833
0.570833
0.570833
0.570833
0.570833
0.570833
0.570833
0.570833
0.570833
0.575000
0.570833
0.570833
0.570833
0.541667
0.604167
0.508333
0.633333
0.575000
0.575000
