0.354167
0.354167
0.341667
0.387500
0.391667
0.337500
0.350000
0.350000
0.395833
0.362500
0.329167
0.333333
0.333333
0.308333
0.320833
0.358333
0.345833
0.387500
0.358333
0.350000
0.358333
0.337500
0.333333
0.341667
0.366667
0.358333
0.325000
0.370833
0.337500
0.387500
0.354167
0.350000
0.350000
0.329167
0.350000
0.337500
0.425000
0.420833
0.470833
0.387500
0.333333
0.329167
0.375000
0.337500
0.350000
0.337500
0.391667
0.358333
0.383333
0.420833
0.341667
0.308333
0.333333
0.337500
0.354167
0.341667
0.333333
0.350000
0.329167
0.337500
0.362500
0.358333
0.337500
0.375000
0.379167
0.350000
0.362500
0.337500
0.329167
0.329167
0.345833
0.337500
0.400000
0.387500
0.329167
0.316667
0.329167
0.358333
0.329167
0.358333
0.408333
0.329167
0.333333
0.350000
0.466667
0.341667
0.308333
0.316667
0.479167
0.412500
0.325000
0.304167
0.304167
0.325000
0.341667
0.345833
0.366667
0.337500
0.329167
0.325000
0.320833
0.312500
0.316667
0.316667
0.295833
0.337500
0.391667
0.354167
0.337500
0.345833
0.320833
0.308333
0.362500
0.345833
0.320833
0.329167
0.329167
0.325000
0.366667
0.316667
0.366667
0.400000
0.329167
0.325000
0.341667
0.441667
0.341667
0.325000
0.325000
0.325000
0.345833
0.341667
0.345833
0.312500
0.379167
0.370833
0.350000
0.362500
0.333333
0.320833
0.312500
0.320833
0.333333
0.379167
0.420833
0.345833
0.333333
0.379167
0.329167
0.362500
0.362500
0.333333
0.329167
0.329167
0.337500
0.354167
0.325000
0.379167
0.345833
0.325000
0.320833
0.329167
0.329167
0.341667
0.325000
0.333333
0.379167
0.420833
0.337500
0.312500
0.300000
0.400000
0.370833
0.337500
0.325000
0.308333
0.304167
0.350000
0.470833
0.354167
0.329167
0.329167
0.341667
0.350000
0.395833
0.337500
0.316667
0.329167
0.333333
0.345833
0.345833
0.333333
0.387500
0.525000
0.591667
0.366667
0.341667
0.308333
0.325000
0.341667
0.312500
0.308333
0.337500
0.325000
0.329167
0.345833
0.341667
0.358333
0.366667
0.337500
0.350000
0.354167
0.325000
0.312500
0.320833
0.350000
0.354167
0.366667
0.350000
0.333333
0.341667
0.337500
0.341667
0.341667
0.316667
0.320833
0.354167
0.358333
0.350000
0.350000
0.341667
0.325000
0.308333
0.320833
0.379167
0.370833
0.354167
0.366667
0.416667
0.370833
0.379167
0.375000
0.350000
0.345833
0.300000
0.304167
0.316667
0.316667
0.333333
0.325000
0.345833
0.379167
0.354167
0.350000
0.358333
0.362500
0.445833
0.441667
0.375000
0.354167
0.337500
0.329167
0.316667
0.358333
0.408333
0.404167
0.337500
0.341667
0.412500
0.387500
0.329167
0.329167
0.337500
0.329167
0.320833
0.320833
0.329167
0.325000
0.325000
0.320833
0.316667
0.316667
0.312500
0.333333
0.345833
0.370833
0.337500
0.341667
0.387500
0.350000
0.354167
0.341667
0.304167
0.325000
0.354167
0.350000
0.366667
0.362500
0.341667
0.325000
0.354167
0.325000
0.383333
0.362500
0.337500
0.333333
0.350000
0.400000
0.375000
0.383333
0.391667
0.341667
0.337500
0.354167
0.379167
0.325000
0.362500
0.354167
0.316667
0.325000
0.362500
0.333333
0.308333
0.333333
0.412500
0.350000
0.366667
0.366667
0.337500
0.312500
0.341667
0.345833
0.333333
0.345833
0.354167
0.412500
0.387500
0.333333
0.337500
0.329167
0.337500
0.354167
0.329167
0.366667
0.633333
0.375000
0.341667
0.320833
0.329167
0.333333
0.345833
0.320833
0.341667
0.337500
0.345833
0.333333
0.395833
0.345833
0.370833
0.379167
0.325000
0.287500
0.295833
0.312500
0.325000
0.337500
0.333333
0.333333
0.404167
0.370833
0.341667
0.337500
0.479167
0.475000
0.366667
0.329167
0.329167
0.350000
0.345833
0.329167
0.295833
0.316667
0.333333
0.304167
0.316667
0.304167
0.308333
0.329167
0.333333
0.350000
0.387500
0.341667
0.387500
0.370833
0.370833
0.333333
0.391667
0.391667
0.341667
0.404167
0.362500
0.337500
0.325000
0.350000
0.345833
0.366667
0.350000
0.412500
0.370833
0.341667
0.316667
0.304167
0.312500
0.300000
0.341667
0.329167
0.354167
0.400000
0.354167
0.337500
0.333333
0.441667
0.475000
0.333333
0.304167
0.304167
0.312500
0.333333
0.333333
0.329167
0.354167
0.337500
0.300000
0.316667
0.337500
0.341667
0.341667
0.329167
0.391667
0.420833
0.350000
0.333333
0.362500
0.391667
0.337500
0.358333
0.341667
0.420833
0.391667
0.354167
0.333333
0.325000
0.375000
0.354167
0.400000
0.350000
0.316667
0.375000
0.370833
0.362500
0.395833
0.358333
0.375000
0.358333
0.337500
0.320833
0.337500
0.341667
0.316667
0.329167
0.350000
0.341667
0.316667
0.333333
0.345833
0.345833
0.341667
0.345833
0.358333
0.308333
0.295833
0.400000
0.379167
0.333333
0.320833
0.325000
0.425000
0.533333
0.337500
0.387500
0.350000
0.366667
0.391667
0.325000
0.308333
0.391667
0.379167
0.337500
0.320833
0.308333
0.308333
0.329167
0.320833
0.320833
0.337500
0.383333
0.366667
0.337500
0.320833
0.337500
0.325000
0.325000
0.308333
0.325000
0.408333
0.350000
0.333333
0.337500
0.333333
0.304167
0.316667
0.350000
0.362500
0.350000
0.345833
0.508333
0.358333
0.350000
0.337500
0.362500
0.341667
0.358333
0.325000
0.325000
0.325000
0.329167
0.341667
0.337500
0.562500
0.366667
0.354167
0.387500
0.312500
0.312500
0.333333
0.333333
0.325000
0.308333
0.316667
0.350000
0.454167
0.383333
0.337500
0.325000
0.320833
0.333333
0.362500
0.400000
0.354167
0.337500
0.337500
0.387500
0.366667
0.383333
0.341667
0.350000
0.320833
0.333333
0.341667
0.345833
0.350000
0.329167
0.341667
0.358333
0.350000
0.337500
0.320833
0.333333
0.358333
0.375000
0.379167
0.420833
0.362500
0.337500
0.337500
0.350000
0.329167
0.295833
0.337500
0.350000
0.329167
0.325000
0.358333
0.387500
0.345833
0.350000
0.391667
0.358333
0.420833
0.370833
0.341667
0.429167
0.383333
0.366667
0.354167
0.370833
0.345833
0.329167
0.312500
0.312500
0.325000
0.366667
0.383333
0.375000
0.450000
0.566667
0.354167
0.566667
0.345833
0.304167
0.312500
0.316667
0.329167
0.308333
0.304167
0.445833
0.362500
0.362500
0.329167
0.320833
0.341667
0.341667
0.316667
0.333333
0.354167
0.341667
0.383333
0.358333
0.325000
0.316667
0.387500
0.358333
0.366667
0.362500
0.337500
0.354167
0.337500
0.412500
0.387500
0.412500
0.408333
0.375000
0.412500
0.341667
0.312500
0.312500
0.379167
0.420833
0.337500
0.312500
0.333333
0.337500
0.320833
0.312500
0.370833
0.379167
0.341667
0.358333
0.341667
0.329167
0.320833
0.362500
0.458333
0.325000
0.333333
0.362500
0.320833
0.337500
0.362500
0.329167
0.316667
0.320833
0.341667
0.333333
0.316667
0.333333
0.350000
0.358333
0.375000
0.358333
0.354167
0.362500
0.341667
0.354167
0.370833
0.362500
0.329167
0.345833
0.441667
0.408333
0.333333
0.354167
0.325000
0.341667
0.312500
0.275000
0.383333
0.366667
0.337500
0.587500
0.395833
0.525000
0.695833
0.329167
0.312500
0.300000
0.362500
0.375000
0.333333
0.312500
0.308333
0.375000
0.354167
0.329167
0.337500
0.445833
0.354167
0.329167
0.379167
0.354167
0.387500
0.387500
0.554167
0.370833
0.325000
0.300000
0.308333
0.329167
0.375000
0.350000
0.333333
0.420833
0.366667
0.337500
0.304167
0.295833
0.312500
0.333333
0.350000
0.354167
0.350000
0.354167
0.395833
0.329167
0.279167
0.329167
0.375000
0.333333
0.316667
0.304167
0.354167
0.337500
0.308333
0.304167
0.316667
0.333333
0.354167
0.329167
0.325000
0.333333
0.345833
0.341667
0.329167
0.333333
0.404167
0.358333
0.333333
0.325000
0.308333
0.345833
0.341667
0.320833
0.300000
0.354167
0.445833
0.366667
0.341667
0.491667
0.362500
0.441667
0.575000
0.362500
0.337500
0.350000
0.350000
0.404167
0.379167
0.345833
0.320833
0.295833
0.287500
0.345833
0.458333
0.329167
0.279167
0.337500
0.325000
0.345833
0.362500
0.345833
0.358333
0.329167
0.379167
0.362500
0.316667
0.341667
0.341667
0.379167
0.375000
0.341667
0.345833
0.337500
0.366667
0.366667
0.362500
0.400000
0.358333
0.350000
0.329167
0.350000
0.350000
0.320833
0.320833
0.395833
0.383333
0.341667
0.383333
0.408333
0.383333
0.341667
0.350000
0.337500
0.333333
0.329167
0.312500
0.333333
0.354167
0.375000
0.412500
0.420833
0.341667
0.320833
0.312500
0.337500
0.562500
0.350000
0.341667
0.333333
0.345833
0.329167
0.370833
0.379167
0.354167
0.362500
0.354167
0.308333
0.295833
0.375000
0.425000
0.345833
0.362500
0.312500
0.320833
0.366667
0.354167
0.454167
0.420833
0.358333
0.325000
0.337500
0.333333
0.408333
0.337500
0.341667
0.433333
0.354167
0.329167
0.316667
0.333333
0.320833
0.341667
0.345833
0.345833
0.366667
0.341667
0.362500
0.341667
0.333333
0.325000
0.316667
0.304167
0.312500
0.316667
0.337500
0.358333
0.350000
0.341667
0.412500
0.475000
0.429167
0.554167
0.362500
0.370833
0.366667
0.529167
0.454167
0.350000
0.304167
0.325000
0.345833
0.350000
0.354167
0.354167
0.329167
0.341667
0.308333
0.312500
0.337500
0.316667
0.304167
0.362500
0.333333
0.370833
0.358333
0.537500
0.479167
0.404167
0.316667
0.283333
0.358333
0.425000
0.350000
0.345833
0.375000
0.337500
0.329167
0.320833
0.350000
0.395833
0.350000
0.354167
0.337500
0.333333
0.341667
0.366667
0.425000
0.358333
0.341667
0.333333
0.345833
0.333333
0.345833
0.345833
0.350000
0.354167
0.345833
0.354167
0.337500
0.358333
0.375000
0.400000
0.579167
0.383333
0.420833
0.370833
0.329167
0.362500
0.395833
0.354167
0.337500
0.337500
0.337500
0.337500
0.420833
0.475000
0.695833
0.341667
0.337500
0.341667
0.341667
0.345833
0.345833
0.370833
0.341667
0.425000
0.454167
0.366667
0.341667
0.350000
0.337500
0.350000
0.341667
0.362500
0.370833
0.341667
0.354167
0.345833
0.362500
0.333333
0.379167
0.345833
0.304167
0.316667
0.358333
0.341667
0.329167
0.308333
0.308333
0.329167
0.295833
0.383333
0.416667
0.345833
0.345833
0.341667
0.333333
0.337500
0.329167
0.329167
0.329167
0.308333
0.345833
0.375000
0.362500
0.345833
0.337500
0.350000
0.333333
0.345833
0.337500
0.312500
0.333333
0.412500
0.379167
0.416667
0.358333
0.358333
0.354167
0.325000
0.341667
0.541667
0.429167
0.337500
0.362500
0.358333
0.337500
0.329167
0.320833
0.337500
0.354167
0.341667
0.362500
0.375000
0.479167
0.350000
0.325000
0.337500
0.325000
0.325000
0.337500
0.345833
0.412500
0.387500
0.370833
0.400000
0.491667
0.358333
0.295833
0.308333
0.329167
0.320833
0.483333
0.387500
0.325000
0.295833
0.329167
0.329167
0.350000
0.325000
0.316667
0.333333
0.345833
0.329167
0.345833
0.345833
0.325000
0.441667
0.375000
0.341667
0.333333
0.350000
0.358333
0.350000
0.416667
0.441667
0.350000
0.362500
0.370833
0.350000
0.350000
0.358333
0.333333
0.358333
0.329167
0.358333
0.345833
0.404167
0.387500
0.400000
0.404167
0.370833
0.366667
0.366667
0.370833
0.337500
0.370833
0.350000
0.366667
0.370833
0.337500
0.391667
0.383333
0.425000
0.354167
0.337500
0.341667
0.341667
0.341667
0.370833
0.366667
0.329167
0.354167
0.333333
0.362500
0.333333
0.333333
0.341667
0.325000
0.300000
0.362500
0.362500
0.337500
0.350000
0.354167
0.320833
0.333333
0.358333
0.358333
0.358333
0.341667
0.345833
0.329167
0.375000
0.379167
0.350000
0.375000
0.350000
0.362500
0.358333
0.366667
0.341667
0.337500
0.333333
0.375000
0.604167
0.350000
0.329167
0.341667
0.329167
0.316667
0.325000
0.400000
0.354167
0.350000
0.333333
0.329167
0.308333
0.325000
0.354167
0.337500
0.362500
0.341667
0.333333
0.325000
0.379167
0.341667
0.358333
0.304167
0.345833
0.362500
0.333333
0.337500
0.341667
0.308333
0.337500
0.362500
0.333333
0.350000
0.350000
0.350000
0.466667
0.408333
0.350000
0.304167
0.300000
0.379167
0.350000
0.345833
0.391667
0.345833
0.329167
0.341667
0.341667
0.345833
0.341667
0.345833
0.333333
0.341667
0.350000
0.387500
0.362500
0.379167
0.341667
0.337500
0.350000
0.362500
0.333333
0.333333
0.350000
0.325000
0.295833
0.391667
0.391667
0.341667
0.333333
0.366667
0.362500
0.350000
0.375000
0.420833
0.366667
0.325000
0.320833
0.354167
0.358333
0.341667
0.329167
0.354167
0.325000
0.333333
0.333333
0.345833
0.358333
0.320833
0.333333
0.333333
0.325000
0.329167
0.354167
0.366667
0.341667
0.333333
0.329167
0.370833
0.370833
0.329167
0.329167
0.320833
0.329167
0.337500
0.345833
0.350000
0.333333
0.433333
0.379167
0.329167
0.312500
0.325000
0.329167
0.412500
0.350000
0.362500
0.400000
0.354167
0.345833
0.333333
0.312500
0.320833
0.345833
0.354167
0.350000
0.341667
0.358333
0.333333
0.329167
0.320833
0.345833
0.362500
0.337500
0.350000
0.345833
0.433333
0.416667
0.354167
0.316667
0.320833
0.350000
0.370833
0.325000
0.316667
0.350000
0.325000
0.287500
0.279167
0.287500
0.266667
0.329167
0.341667
0.375000
0.387500
0.370833
0.416667
0.354167
0.329167
0.333333
0.333333
0.341667
0.333333
0.370833
0.379167
0.350000
0.329167
0.412500
0.387500
0.354167
0.345833
0.304167
0.341667
0.370833
0.337500
0.325000
0.329167
0.312500
0.337500
0.362500
0.375000
0.337500
0.329167
0.333333
0.337500
0.320833
0.362500
0.512500
0.379167
0.341667
0.329167
0.333333
0.329167
0.366667
0.320833
0.404167
0.358333
0.350000
0.325000
0.337500
0.329167
0.333333
0.337500
0.312500
0.329167
0.341667
0.300000
0.295833
0.395833
0.350000
0.341667
0.312500
0.308333
0.366667
0.362500
0.325000
0.304167
0.329167
0.354167
0.350000
0.337500
0.375000
1.870833
1.458333
0.812500
1.087500
0.987500
0.966667
0.933333
0.962500
0.683333
0.766667
1.433333
0.758333
0.762500
0.758333
1.395833
0.754167
0.741667
0.750000
1.245833
0.895833
0.745833
0.745833
0.741667
1.233333
0.916667
0.762500
0.770833
0.762500
0.762500
0.762500
0.758333
0.758333
0.762500
0.770833
0.766667
0.775000
0.775000
0.779167
0.775000
0.779167
0.775000
0.783333
0.787500
0.787500
0.783333
0.800000
0.800000
0.812500
1.012500
0.970833
0.945833
0.929167
0.925000
0.891667
0.875000
0.458333
0.562500
0.516667
0.583333
1.541667
0.754167
0.583333
0.625000
1.145833
1.391667
1.950000
0.741667
0.658333
0.558333
0.612500
0.566667
0.683333
1.658333
0.737500
0.483333
0.379167
0.512500
1.654167
0.750000
0.637500
0.608333
1.250000
1.991667
0.762500
0.616667
0.683333
0.637500
0.650000
0.691667
1.566667
1.758333
0.783333
0.433333
0.350000
0.345833
1.237500
0.754167
0.604167
0.670833
0.675000
0.633333
0.666667
0.633333
0.633333
0.641667
0.666667
0.700000
0.666667
0.633333
0.666667
0.654167
0.625000
0.400000
0.358333
0.320833
0.291667
0.320833
0.320833
0.345833
0.337500
0.316667
0.375000
0.375000
0.350000
0.325000
0.337500
0.345833
0.329167
0.391667
0.420833
0.370833
0.500000
0.354167
0.308333
0.370833
0.366667
0.345833
0.341667
0.329167
0.358333
0.350000
0.370833
0.350000
0.345833
0.345833
0.350000
0.341667
0.333333
0.337500
0.341667
0.329167
0.366667
0.362500
0.325000
0.350000
0.375000
0.341667
0.325000
0.337500
0.362500
0.345833
0.375000
0.362500
0.312500
0.316667
0.341667
0.333333
0.333333
0.312500
0.404167
0.366667
0.350000
0.345833
0.387500
0.370833
0.383333
0.400000
0.375000
0.391667
0.345833
0.333333
0.354167
0.341667
0.345833
0.345833
0.366667
0.358333
0.341667
0.333333
0.316667
0.337500
0.525000
0.366667
0.329167
0.320833
0.300000
0.320833
0.412500
0.362500
0.345833
0.341667
0.337500
0.350000
0.337500
0.337500
0.337500
0.337500
0.320833
0.304167
0.354167
0.358333
0.391667
0.333333
0.325000
0.333333
0.337500
