0.479167
0.487500
0.495833
0.483333
0.387500
0.566667
0.491667
0.466667
0.416667
0.712500
0.237500
0.962500
0.525000
0.462500
0.441667
0.412500
0.412500
0.870833
0.395833
0.454167
0.441667
0.566667
0.308333
0.445833
0.458333
0.400000
0.487500
0.779167
0.433333
0.445833
0.404167
0.812500
0.620833
0.358333
0.416667
0.450000
0.516667
0.908333
0.366667
1.208333
0.395833
0.754167
0.312500
0.366667
0.966667
0.375000
1.079167
0.383333
1.091667
0.391667
0.483333
1.000000
0.383333
0.945833
0.379167
0.466667
0.725000
0.362500
1.004167
0.391667
0.458333
0.408333
0.475000
0.387500
0.425000
0.329167
0.425000
0.445833
0.437500
0.870833
0.437500
0.354167
0.720833
0.650000
0.370833
0.300000
1.025000
0.445833
0.383333
0.366667
0.458333
0.425000
0.420833
0.420833
0.437500
0.450000
0.475000
0.858333
0.475000
0.412500
0.391667
0.466667
0.429167
0.454167
0.445833
0.433333
0.316667
0.254167
0.537500
0.466667
0.191667
0.350000
0.495833
0.212500
0.591667
0.570833
0.329167
0.408333
0.441667
0.429167
0.458333
0.362500
0.808333
0.545833
0.791667
1.104167
0.791667
0.575000
0.358333
0.700000
0.241667
0.341667
0.358333
0.212500
0.312500
0.512500
0.466667
0.725000
0.379167
0.333333
0.575000
1.008333
0.441667
0.366667
0.487500
0.362500
0.425000
0.520833
0.345833
0.633333
0.529167
0.745833
0.370833
0.683333
0.366667
0.979167
0.395833
0.983333
0.379167
1.008333
0.433333
0.366667
0.512500
1.041667
0.441667
0.375000
1.175000
0.441667
0.341667
0.383333
0.375000
0.870833
0.420833
0.337500
0.541667
0.387500
0.345833
0.570833
0.362500
0.441667
0.383333
0.454167
0.429167
0.737500
0.433333
0.362500
0.504167
0.350000
0.495833
0.454167
0.966667
0.895833
0.429167
0.370833
1.175000
0.437500
0.366667
0.412500
0.425000
0.341667
0.345833
0.512500
0.583333
0.441667
0.366667
0.362500
0.350000
0.287500
0.095833
0.445833
0.404167
0.545833
0.529167
0.391667
0.341667
0.579167
0.354167
0.904167
0.762500
0.666667
0.425000
0.475000
0.416667
0.395833
0.258333
1.512500
0.387500
0.991667
0.437500
0.383333
0.783333
0.408333
0.433333
1.250000
1.162500
0.891667
0.812500
0.987500
0.445833
0.791667
0.487500
0.404167
0.483333
0.404167
1.370833
0.416667
0.879167
0.691667
0.629167
0.441667
0.379167
0.787500
0.454167
0.937500
0.320833
0.312500
0.441667
0.533333
0.362500
0.779167
0.791667
0.483333
0.462500
0.816667
0.337500
0.658333
0.837500
1.195833
1.008333
0.908333
0.479167
0.800000
0.329167
0.520833
0.820833
0.420833
0.354167
0.466667
0.450000
1.212500
0.641667
0.379167
0.650000
0.604167
0.375000
0.300000
0.620833
0.391667
0.312500
0.412500
0.837500
0.654167
0.691667
0.895833
0.445833
0.345833
0.608333
0.433333
0.345833
0.420833
0.704167
0.441667
0.333333
0.629167
0.437500
0.345833
0.529167
0.420833
0.345833
0.612500
0.600000
0.366667
0.300000
0.875000
0.420833
0.345833
0.512500
0.754167
0.420833
0.341667
0.658333
0.441667
0.341667
0.508333
0.762500
0.433333
0.341667
0.550000
0.362500
0.445833
0.437500
0.933333
0.433333
0.358333
0.362500
0.429167
0.341667
0.404167
0.395833
0.437500
0.458333
0.729167
1.029167
0.883333
0.837500
0.437500
1.037500
0.441667
0.358333
1.154167
0.441667
0.345833
0.350000
0.500000
0.316667
0.391667
0.375000
0.150000
0.458333
0.333333
0.504167
0.387500
0.604167
0.366667
0.312500
0.941667
0.450000
0.345833
0.387500
0.354167
0.925000
0.450000
0.350000
0.362500
0.425000
0.337500
0.416667
0.458333
0.441667
0.437500
0.425000
0.458333
0.437500
0.416667
0.466667
0.495833
0.429167
0.437500
0.495833
0.525000
0.420833
0.441667
0.454167
0.445833
0.445833
0.450000
0.433333
0.375000
0.345833
0.241667
0.375000
0.420833
0.716667
0.191667
0.433333
0.341667
0.520833
0.541667
0.470833
0.362500
0.333333
0.370833
0.570833
0.366667
0.337500
0.404167
0.462500
0.512500
0.529167
0.479167
0.429167
0.516667
0.825000
0.679167
0.450000
0.541667
0.312500
0.770833
0.645833
0.370833
0.491667
0.412500
0.425000
0.937500
0.420833
0.358333
0.454167
0.420833
0.441667
0.408333
0.437500
0.441667
0.412500
0.329167
0.500000
0.325000
0.433333
0.787500
0.979167
0.875000
0.845833
0.779167
0.579167
0.750000
0.916667
0.412500
0.633333
0.445833
0.262500
0.545833
0.441667
0.325000
0.641667
0.383333
0.362500
0.554167
0.366667
1.029167
0.450000
0.466667
0.979167
0.483333
0.362500
0.516667
1.412500
0.429167
0.329167
0.683333
0.800000
0.370833
0.304167
0.275000
0.445833
0.700000
0.266667
0.508333
0.508333
0.725000
0.787500
0.470833
0.679167
1.508333
0.887500
1.225000
0.508333
0.470833
0.908333
0.445833
0.866667
0.470833
0.433333
0.491667
0.441667
0.450000
0.466667
0.479167
0.412500
0.604167
0.366667
0.500000
0.420833
0.437500
0.437500
0.566667
0.462500
0.420833
0.541667
0.420833
0.333333
0.462500
0.454167
0.391667
0.445833
0.450000
0.400000
0.329167
0.516667
0.433333
0.420833
0.395833
0.454167
0.416667
0.487500
0.500000
0.412500
0.483333
0.445833
0.395833
0.416667
0.341667
0.487500
0.312500
0.808333
0.958333
0.879167
0.887500
0.408333
0.366667
0.820833
0.387500
0.475000
0.504167
0.416667
0.383333
0.475000
0.479167
0.491667
0.341667
0.487500
0.420833
1.195833
0.904167
0.416667
0.362500
0.504167
1.070833
0.429167
0.362500
0.529167
1.058333
0.850000
0.379167
0.354167
0.550000
1.054167
0.441667
0.345833
0.504167
0.354167
0.533333
0.575000
0.841667
0.420833
0.345833
0.500000
0.354167
0.333333
0.587500
0.358333
0.962500
0.445833
0.679167
0.370833
0.362500
0.525000
0.825000
0.454167
1.016667
0.445833
0.354167
0.487500
0.350000
0.325000
0.591667
0.366667
0.458333
0.433333
0.441667
0.412500
0.433333
0.475000
0.416667
0.450000
0.445833
0.458333
0.454167
0.425000
0.458333
0.441667
0.441667
0.520833
0.312500
0.487500
0.220833
0.216667
0.491667
0.070833
0.333333
0.445833
0.400000
0.375000
0.433333
0.458333
0.504167
0.341667
0.450000
0.500000
0.404167
0.437500
0.462500
0.437500
0.425000
0.433333
0.479167
0.816667
0.329167
0.312500
0.566667
0.375000
0.491667
0.412500
0.412500
0.841667
0.583333
0.375000
0.470833
0.495833
0.441667
0.445833
0.429167
0.420833
0.458333
0.333333
0.420833
0.675000
0.608333
0.570833
0.387500
0.475000
0.491667
0.429167
0.441667
0.462500
0.450000
0.433333
0.445833
0.825000
0.500000
0.325000
0.516667
0.491667
0.500000
0.800000
0.441667
0.875000
0.379167
0.362500
0.770833
0.341667
0.395833
0.429167
0.433333
0.420833
0.433333
0.629167
0.241667
0.475000
0.333333
0.425000
0.437500
0.475000
0.437500
0.429167
0.450000
0.895833
0.454167
0.454167
0.454167
0.462500
0.454167
0.895833
0.479167
0.454167
0.479167
0.729167
0.725000
0.366667
0.375000
0.712500
0.437500
0.858333
0.629167
0.362500
1.058333
0.379167
0.325000
0.604167
0.395833
0.937500
0.375000
0.475000
0.433333
0.400000
0.325000
0.395833
0.408333
0.433333
0.404167
0.429167
0.420833
0.454167
0.491667
0.412500
0.433333
0.454167
0.420833
0.441667
0.433333
0.420833
0.420833
0.420833
0.475000
0.829167
0.450000
0.337500
0.808333
0.479167
0.333333
0.420833
0.433333
0.433333
0.445833
0.458333
0.333333
0.354167
0.425000
0.454167
0.470833
0.445833
0.525000
0.504167
0.429167
0.512500
0.345833
0.954167
0.670833
0.600000
0.366667
0.487500
0.400000
0.437500
0.412500
0.479167
0.458333
0.458333
0.470833
0.462500
0.437500
0.391667
0.591667
0.458333
0.991667
0.933333
0.879167
0.379167
0.341667
0.616667
0.366667
0.500000
0.620833
0.725000
0.370833
0.341667
0.662500
0.675000
0.366667
0.304167
0.375000
0.308333
0.733333
0.445833
0.325000
0.587500
0.570833
0.358333
0.962500
0.395833
0.325000
0.616667
0.375000
0.308333
0.595833
0.400000
0.308333
0.658333
0.383333
0.466667
0.408333
0.429167
0.341667
0.387500
0.450000
0.341667
0.304167
0.500000
0.412500
0.408333
0.487500
0.354167
0.366667
0.445833
0.375000
0.325000
0.716667
0.587500
0.379167
0.491667
0.475000
0.329167
0.408333
0.445833
0.445833
0.425000
0.487500
0.341667
0.366667
0.395833
0.454167
0.437500
0.525000
0.358333
0.462500
0.750000
0.616667
0.583333
0.383333
0.487500
0.475000
0.462500
0.483333
0.425000
0.412500
0.387500
0.445833
0.445833
0.425000
0.316667
0.720833
0.587500
0.712500
0.587500
0.362500
0.483333
0.416667
0.400000
0.750000
0.545833
0.433333
0.295833
0.491667
0.487500
0.483333
0.441667
0.462500
0.341667
0.475000
1.150000
0.708333
0.654167
0.208333
0.425000
0.479167
1.058333
0.237500
0.325000
0.754167
0.383333
0.458333
0.458333
0.754167
1.000000
0.420833
0.354167
0.520833
0.800000
0.379167
0.333333
0.600000
0.387500
0.454167
0.429167
0.483333
0.400000
0.391667
0.445833
0.404167
0.429167
0.437500
0.462500
0.345833
0.662500
0.941667
0.879167
0.854167
0.837500
0.379167
0.337500
0.570833
0.379167
0.479167
0.387500
0.337500
0.337500
0.387500
0.891667
0.450000
0.333333
0.570833
0.395833
0.475000
0.704167
0.395833
0.479167
0.870833
0.429167
0.354167
0.437500
0.420833
0.450000
0.416667
0.487500
0.416667
0.416667
0.400000
0.425000
0.433333
0.445833
0.462500
0.445833
0.479167
0.354167
0.333333
0.408333
0.775000
0.437500
0.337500
0.679167
0.579167
0.370833
0.320833
0.854167
0.458333
0.337500
0.391667
0.441667
0.787500
0.658333
0.375000
0.329167
0.583333
0.341667
0.470833
0.908333
0.450000
0.345833
0.370833
0.320833
0.325000
0.341667
0.412500
0.341667
0.320833
0.304167
0.837500
0.400000
0.354167
0.616667
1.037500
0.412500
0.341667
0.283333
0.358333
0.929167
0.462500
0.966667
0.795833
0.479167
1.008333
0.454167
0.975000
0.400000
0.320833
0.579167
0.366667
0.491667
0.416667
0.345833
0.762500
0.454167
0.958333
0.433333
0.329167
1.220833
0.404167
0.320833
0.595833
0.375000
0.308333
0.691667
0.416667
0.337500
0.583333
0.400000
0.329167
1.025000
0.387500
0.316667
0.587500
0.400000
0.329167
0.554167
0.854167
0.429167
0.966667
0.433333
0.333333
0.279167
0.366667
0.900000
0.458333
0.333333
0.479167
0.358333
0.312500
0.545833
0.429167
0.337500
0.554167
0.433333
0.341667
0.575000
0.429167
0.345833
0.537500
0.362500
0.641667
0.383333
0.316667
0.850000
0.425000
0.341667
0.533333
0.395833
0.312500
0.633333
0.433333
0.354167
0.570833
0.425000
0.333333
0.691667
0.420833
0.345833
0.600000
0.433333
0.345833
0.429167
0.387500
0.916667
0.441667
0.345833
0.300000
0.366667
0.350000
0.737500
0.450000
0.337500
0.554167
0.429167
0.341667
0.683333
0.429167
0.354167
0.475000
0.358333
0.325000
0.420833
0.320833
0.316667
0.408333
0.462500
0.458333
0.462500
0.445833
0.466667
0.854167
0.437500
0.387500
0.475000
0.358333
0.433333
0.795833
0.454167
0.337500
0.662500
0.429167
0.341667
0.691667
0.450000
0.779167
0.425000
0.350000
0.487500
0.341667
0.333333
0.608333
0.358333
0.325000
0.600000
0.433333
0.350000
0.383333
0.454167
0.316667
0.508333
0.516667
0.487500
0.454167
0.445833
0.533333
0.354167
0.345833
0.508333
0.483333
0.470833
0.516667
0.400000
0.408333
0.404167
0.750000
0.945833
0.920833
0.883333
0.462500
0.745833
0.345833
0.633333
0.437500
0.345833
0.512500
0.795833
0.400000
0.354167
0.533333
1.054167
0.425000
0.362500
1.162500
0.437500
0.366667
0.579167
0.362500
0.337500
0.587500
0.387500
0.662500
0.391667
0.379167
0.487500
0.766667
0.429167
0.337500
0.650000
0.441667
0.770833
0.420833
0.350000
0.479167
0.341667
0.304167
0.591667
0.445833
0.633333
0.366667
0.362500
0.500000
0.816667
0.433333
0.354167
0.383333
0.316667
0.370833
0.337500
0.304167
0.345833
0.904167
0.437500
0.350000
1.087500
0.454167
0.341667
0.562500
0.433333
0.341667
0.366667
0.358333
0.920833
0.441667
0.358333
1.091667
0.441667
0.345833
0.545833
