0.333333
0.316667
0.325000
0.333333
0.341667
0.325000
0.345833
0.358333
0.304167
0.279167
0.350000
0.320833
0.300000
0.445833
0.491667
0.337500
0.308333
0.304167
0.312500
0.345833
0.391667
0.337500
0.375000
0.362500
0.337500
0.341667
0.345833
0.329167
0.320833
0.329167
0.566667
0.662500
0.358333
0.470833
0.366667
0.333333
0.333333
0.325000
0.304167
0.295833
0.300000
0.295833
0.295833
0.325000
0.366667
0.337500
0.308333
0.287500
0.316667
0.329167
0.337500
0.337500
0.320833
0.316667
0.316667
0.316667
0.320833
0.325000
0.345833
0.358333
0.333333
0.308333
0.283333
0.362500
0.354167
0.333333
0.350000
0.433333
0.345833
0.341667
0.350000
0.312500
0.320833
0.337500
0.437500
0.320833
0.341667
0.345833
0.325000
0.337500
0.333333
0.320833
0.320833
0.483333
0.375000
0.337500
0.437500
0.333333
0.300000
0.308333
0.320833
0.341667
0.341667
0.350000
0.304167
0.291667
0.325000
0.329167
0.408333
0.333333
0.362500
0.354167
0.341667
0.345833
0.362500
0.412500
0.533333
0.895833
0.683333
0.325000
0.337500
0.337500
0.325000
0.333333
0.329167
0.316667
0.308333
0.312500
0.312500
0.337500
0.329167
0.312500
0.325000
0.345833
0.350000
0.337500
0.375000
0.350000
0.366667
0.329167
0.312500
0.320833
0.308333
0.325000
0.333333
0.325000
0.316667
0.350000
0.316667
0.283333
0.304167
0.337500
0.358333
0.333333
0.345833
0.345833
0.345833
0.400000
0.354167
0.341667
0.341667
0.325000
0.329167
0.329167
0.329167
0.345833
0.358333
0.570833
0.354167
0.312500
0.345833
0.483333
0.670833
0.333333
0.354167
0.320833
0.312500
0.329167
0.345833
0.333333
0.320833
0.312500
0.337500
0.350000
0.329167
0.320833
0.333333
0.329167
0.341667
0.333333
0.295833
0.300000
0.329167
0.345833
0.320833
0.362500
0.345833
0.337500
0.375000
0.325000
0.304167
0.300000
0.337500
0.333333
0.337500
0.337500
0.337500
0.408333
0.341667
0.325000
0.354167
0.329167
0.333333
0.354167
0.341667
0.345833
0.329167
0.370833
0.362500
0.333333
0.366667
0.325000
0.320833
0.350000
0.329167
0.370833
0.341667
0.329167
0.533333
1.562500
0.887500
1.208333
0.675000
1.225000
1.116667
0.916667
0.829167
0.883333
0.854167
0.870833
0.850000
0.854167
0.841667
0.845833
0.833333
0.787500
0.800000
0.779167
0.712500
0.683333
1.179167
0.762500
0.675000
1.212500
0.745833
0.845833
0.708333
1.195833
0.862500
0.858333
0.829167
0.800000
0.795833
0.804167
0.804167
0.816667
0.812500
0.816667
0.812500
0.820833
0.820833
0.816667
0.820833
0.820833
0.820833
0.825000
0.820833
0.812500
0.800000
0.854167
0.841667
0.833333
0.837500
0.837500
0.820833
0.845833
0.825000
0.833333
0.829167
0.825000
0.820833
0.812500
0.545833
0.450000
0.637500
0.645833
0.562500
0.570833
0.629167
0.625000
0.612500
0.612500
0.654167
0.641667
0.579167
0.358333
0.366667
0.370833
0.329167
0.300000
0.287500
0.308333
0.300000
0.291667
0.308333
0.354167
0.350000
0.508333
0.350000
0.275000
0.254167
0.295833
0.329167
0.312500
0.366667
0.350000
0.333333
0.354167
0.350000
0.587500
0.316667
0.341667
0.345833
0.354167
0.345833
0.395833
0.358333
0.325000
0.316667
0.325000
0.300000
0.333333
0.545833
0.350000
0.408333
0.433333
0.362500
0.341667
0.345833
0.312500
0.300000
0.291667
0.291667
0.358333
0.341667
0.325000
0.333333
0.308333
0.325000
0.354167
0.337500
0.333333
0.341667
0.337500
0.337500
0.333333
0.354167
0.333333
0.316667
0.320833
0.325000
0.325000
0.341667
0.337500
0.320833
0.325000
0.337500
0.333333
0.345833
0.358333
0.325000
0.308333
0.362500
0.375000
0.329167
0.341667
0.337500
0.362500
0.337500
0.337500
0.333333
0.333333
0.325000
0.375000
0.575000
0.366667
0.316667
0.354167
0.375000
0.370833
0.429167
0.345833
0.320833
0.345833
0.337500
0.325000
0.358333
0.333333
0.316667
0.366667
0.362500
0.379167
0.358333
0.312500
0.312500
0.333333
0.329167
0.333333
0.325000
0.362500
0.316667
0.333333
0.325000
0.345833
0.350000
0.320833
0.325000
0.320833
0.337500
0.325000
0.333333
0.333333
0.329167
0.320833
0.350000
0.345833
0.320833
0.320833
0.366667
0.358333
0.316667
0.304167
0.379167
0.366667
0.337500
0.333333
0.320833
0.354167
0.341667
0.325000
0.350000
0.341667
0.329167
0.341667
0.341667
0.325000
0.341667
0.341667
0.383333
0.362500
0.333333
0.312500
0.320833
0.337500
0.320833
0.333333
0.412500
0.341667
0.325000
0.337500
0.341667
0.333333
0.337500
0.333333
0.350000
0.362500
0.333333
0.329167
0.329167
0.329167
0.329167
0.345833
0.354167
0.320833
0.350000
0.341667
0.337500
0.329167
0.333333
0.329167
0.341667
0.337500
0.312500
0.325000
0.362500
0.370833
0.345833
0.345833
0.333333
0.341667
0.350000
0.304167
0.312500
0.383333
0.375000
0.362500
0.412500
0.566667
0.370833
0.329167
0.354167
0.333333
0.345833
0.350000
0.462500
0.391667
0.425000
0.345833
0.325000
0.329167
0.325000
0.316667
0.337500
0.329167
0.308333
0.316667
0.375000
0.362500
0.362500
0.350000
0.345833
0.508333
0.400000
0.345833
0.308333
0.391667
0.341667
0.362500
0.333333
0.375000
0.375000
0.329167
0.337500
0.333333
0.312500
0.325000
0.345833
0.333333
0.350000
0.370833
0.325000
0.354167
0.345833
0.320833
0.312500
0.325000
0.320833
0.354167
0.358333
0.366667
0.341667
0.316667
0.333333
0.329167
0.333333
0.329167
0.337500
0.375000
0.445833
0.404167
0.337500
0.387500
0.525000
0.387500
0.345833
0.316667
0.329167
0.325000
0.345833
0.333333
0.329167
0.325000
0.320833
0.329167
0.337500
0.329167
0.354167
0.337500
0.362500
0.383333
0.370833
0.345833
0.337500
0.316667
0.325000
0.370833
0.491667
0.379167
0.445833
0.354167
0.337500
0.220833
0.495833
0.470833
0.366667
0.412500
0.362500
0.337500
0.304167
0.345833
0.345833
0.312500
0.316667
0.337500
0.350000
0.320833
0.341667
0.333333
0.333333
0.325000
0.337500
0.333333
0.345833
0.341667
0.350000
0.354167
0.337500
0.345833
0.341667
0.350000
0.333333
0.337500
0.333333
0.387500
0.358333
0.362500
0.354167
0.400000
0.433333
0.325000
0.333333
0.366667
0.354167
0.325000
0.329167
0.341667
0.333333
0.337500
0.350000
0.329167
0.341667
0.525000
0.400000
0.325000
0.375000
0.366667
0.391667
0.362500
0.345833
0.329167
0.358333
0.362500
0.329167
0.383333
0.350000
0.345833
0.341667
0.333333
0.325000
0.333333
0.345833
0.354167
0.333333
0.329167
0.329167
0.341667
0.304167
0.341667
0.337500
0.341667
0.337500
0.325000
0.329167
0.312500
0.333333
0.383333
0.362500
0.337500
0.345833
0.337500
0.341667
0.345833
0.562500
0.441667
0.483333
0.345833
0.312500
0.358333
0.354167
0.362500
0.370833
0.333333
0.320833
0.337500
0.370833
0.441667
0.362500
0.329167
0.387500
0.354167
0.362500
0.325000
0.316667
0.358333
0.350000
0.320833
0.312500
0.350000
0.362500
0.350000
0.337500
0.329167
0.391667
0.404167
0.362500
0.337500
0.362500
0.333333
0.337500
0.358333
0.337500
0.354167
0.320833
0.312500
0.337500
0.370833
0.333333
0.295833
0.312500
0.341667
0.320833
0.333333
0.325000
0.358333
0.337500
0.350000
0.337500
0.400000
0.412500
0.366667
0.350000
0.337500
0.333333
0.404167
0.375000
0.329167
0.333333
0.350000
0.370833
0.345833
0.333333
0.341667
0.320833
0.333333
0.333333
0.320833
0.333333
0.358333
0.341667
0.329167
0.320833
0.350000
0.354167
0.333333
0.366667
0.350000
0.362500
0.337500
0.366667
0.341667
0.333333
0.333333
0.329167
0.345833
0.333333
0.325000
0.337500
0.345833
0.337500
0.337500
0.337500
0.370833
0.350000
0.325000
0.333333
0.316667
0.341667
0.337500
0.341667
0.341667
0.366667
0.329167
0.387500
0.379167
0.333333
0.358333
0.387500
0.341667
0.412500
0.391667
0.362500
0.358333
0.350000
0.325000
0.345833
0.345833
0.329167
0.345833
0.358333
0.387500
0.341667
0.366667
0.412500
0.345833
0.345833
0.329167
0.320833
0.341667
0.329167
0.329167
0.329167
0.354167
0.333333
0.337500
0.341667
0.345833
0.350000
0.329167
0.325000
0.341667
0.408333
0.366667
0.333333
0.333333
0.333333
0.325000
0.325000
0.354167
0.366667
0.345833
0.345833
0.333333
0.366667
0.391667
0.341667
0.379167
0.345833
0.333333
0.341667
0.329167
0.337500
0.337500
0.350000
0.333333
0.341667
0.341667
0.362500
0.370833
0.333333
0.345833
0.345833
0.366667
0.395833
0.358333
0.333333
0.345833
0.333333
0.325000
0.362500
0.316667
0.312500
0.325000
0.304167
0.462500
0.358333
0.316667
0.300000
0.341667
0.395833
0.350000
0.316667
0.312500
0.287500
0.341667
0.354167
0.408333
0.362500
0.316667
0.304167
0.341667
0.337500
0.316667
0.325000
0.341667
0.358333
0.337500
0.337500
0.329167
0.312500
0.300000
0.320833
0.329167
0.354167
0.375000
0.466667
0.495833
0.375000
0.329167
0.325000
0.375000
0.350000
0.320833
0.354167
0.354167
0.383333
0.337500
0.312500
0.312500
0.300000
0.312500
0.308333
0.329167
0.312500
0.370833
0.370833
0.337500
0.325000
1.900000
1.037500
1.008333
0.862500
0.950000
0.925000
0.841667
0.837500
1.283333
0.725000
0.720833
1.237500
0.837500
0.725000
0.720833
1.237500
0.841667
0.720833
0.720833
1.225000
0.845833
0.716667
0.716667
0.720833
1.229167
0.845833
0.716667
0.720833
0.725000
1.220833
0.791667
0.775000
0.729167
0.716667
0.712500
1.200000
0.791667
0.845833
0.737500
0.804167
0.733333
0.729167
0.720833
0.712500
0.708333
1.208333
0.791667
0.866667
0.729167
1.187500
0.929167
0.920833
0.912500
0.887500
0.858333
0.862500
0.850000
0.787500
0.870833
0.854167
0.754167
0.708333
0.708333
0.687500
0.687500
0.687500
1.200000
0.479167
0.920833
0.466667
0.875000
0.458333
0.908333
0.458333
0.920833
0.462500
0.929167
0.458333
0.929167
0.458333
0.933333
0.462500
0.929167
0.912500
0.741667
0.445833
0.587500
0.462500
0.383333
0.504167
0.637500
0.604167
0.579167
0.575000
0.900000
0.845833
1.420833
0.837500
0.779167
0.941667
0.704167
0.583333
0.579167
1.141667
1.212500
0.712500
0.562500
0.570833
0.570833
0.591667
0.550000
0.733333
0.650000
0.545833
0.875000
0.650000
0.837500
0.637500
0.637500
0.604167
0.625000
0.604167
0.583333
0.429167
0.362500
0.329167
0.316667
0.329167
0.320833
0.329167
0.337500
0.325000
0.329167
0.320833
0.316667
0.320833
0.333333
0.312500
0.295833
0.320833
0.333333
0.470833
0.437500
0.375000
0.320833
0.295833
0.308333
0.337500
0.416667
0.350000
0.325000
0.333333
0.320833
0.479167
0.400000
0.333333
0.320833
0.341667
0.375000
0.337500
0.333333
0.320833
0.350000
0.350000
0.316667
0.325000
0.362500
0.333333
0.325000
0.333333
0.358333
0.345833
0.358333
0.362500
0.333333
0.350000
0.350000
0.337500
0.329167
0.362500
0.333333
0.341667
0.350000
0.341667
0.337500
0.320833
0.329167
0.358333
0.345833
0.370833
0.362500
0.341667
0.337500
0.320833
0.308333
0.345833
0.345833
0.362500
0.350000
0.333333
0.333333
0.337500
0.337500
0.337500
0.341667
0.333333
0.333333
0.337500
0.341667
0.333333
0.337500
0.341667
0.341667
0.333333
0.341667
0.341667
0.354167
0.337500
0.375000
0.354167
0.445833
0.408333
0.383333
0.350000
0.362500
0.333333
0.304167
0.358333
0.383333
0.337500
0.320833
0.320833
0.333333
0.333333
0.329167
0.316667
0.312500
0.345833
0.354167
0.354167
0.350000
0.325000
0.341667
0.333333
0.316667
0.316667
0.375000
0.366667
0.341667
0.329167
0.333333
0.333333
0.341667
0.341667
0.337500
0.325000
0.337500
0.341667
0.333333
0.337500
0.333333
0.354167
0.350000
0.329167
0.316667
0.304167
0.333333
0.370833
0.333333
0.341667
0.354167
0.366667
0.370833
0.341667
0.366667
0.308333
0.320833
0.350000
0.308333
0.316667
0.366667
0.341667
0.383333
0.362500
0.337500
0.333333
0.329167
0.375000
0.370833
0.333333
0.329167
0.337500
0.345833
0.333333
0.333333
0.325000
0.308333
0.325000
0.345833
0.350000
0.408333
0.362500
0.337500
0.350000
0.345833
0.441667
0.587500
0.354167
0.304167
0.325000
0.345833
0.333333
0.350000
0.408333
0.354167
0.341667
0.354167
0.350000
0.345833
0.350000
0.337500
0.337500
0.329167
0.316667
0.325000
0.366667
0.316667
0.345833
0.337500
0.312500
0.329167
0.366667
0.379167
0.354167
0.354167
0.337500
0.362500
0.366667
0.362500
0.350000
0.341667
0.387500
0.441667
0.362500
0.329167
0.337500
0.350000
0.312500
0.320833
0.337500
0.320833
0.345833
0.341667
0.337500
0.466667
0.358333
0.341667
0.341667
0.329167
0.341667
0.329167
0.300000
0.316667
0.366667
0.329167
0.333333
0.337500
0.345833
0.345833
0.345833
0.333333
0.370833
0.379167
0.370833
0.333333
0.320833
0.308333
0.337500
0.362500
0.341667
0.354167
0.337500
0.370833
0.379167
0.341667
0.366667
0.370833
0.333333
0.325000
0.312500
0.358333
0.450000
0.400000
0.429167
0.366667
0.337500
0.320833
0.337500
0.333333
0.333333
0.333333
0.354167
0.333333
0.354167
0.379167
0.341667
0.350000
0.345833
0.370833
0.370833
0.333333
0.345833
0.345833
0.325000
0.329167
0.304167
0.316667
0.387500
0.362500
0.379167
0.329167
0.325000
0.350000
0.345833
0.383333
0.383333
0.337500
0.387500
0.391667
0.345833
0.329167
0.362500
0.354167
0.354167
0.329167
0.333333
0.329167
0.362500
0.362500
0.341667
0.337500
0.341667
0.329167
0.341667
0.350000
0.333333
0.341667
0.337500
0.362500
0.425000
0.337500
0.337500
0.345833
0.333333
0.308333
0.366667
0.420833
0.341667
0.312500
0.316667
0.420833
0.445833
0.366667
0.333333
0.400000
0.391667
0.345833
0.325000
0.341667
0.333333
0.320833
0.333333
0.375000
0.341667
0.333333
0.337500
0.379167
0.362500
0.375000
0.358333
0.312500
0.379167
0.362500
0.325000
0.350000
0.337500
0.345833
0.362500
0.341667
0.329167
0.304167
0.325000
0.366667
0.333333
0.350000
0.383333
0.354167
0.366667
0.337500
0.308333
0.341667
0.379167
0.350000
0.337500
0.366667
0.325000
0.312500
0.337500
0.366667
0.337500
0.345833
0.333333
0.379167
0.362500
0.545833
0.375000
0.337500
0.479167
0.412500
0.379167
0.370833
0.429167
0.458333
0.454167
0.358333
0.320833
0.316667
0.341667
0.329167
0.345833
0.333333
0.345833
0.329167
0.320833
0.333333
0.341667
0.333333
0.350000
0.370833
0.516667
0.550000
0.362500
0.333333
0.366667
0.358333
0.329167
0.350000
0.341667
0.370833
0.345833
0.383333
0.354167
0.337500
0.350000
0.333333
0.341667
0.333333
0.320833
0.325000
0.345833
0.333333
0.329167
0.345833
0.366667
0.350000
0.375000
0.354167
0.345833
0.325000
0.329167
0.375000
0.337500
0.395833
0.420833
0.387500
0.345833
0.362500
0.370833
0.329167
0.329167
0.333333
0.341667
0.337500
0.412500
0.354167
0.345833
0.425000
0.358333
0.337500
0.329167
0.316667
0.362500
0.358333
0.337500
0.350000
0.345833
0.350000
0.333333
0.341667
0.333333
0.341667
0.337500
0.316667
0.337500
