0.533333
0.533333
0.529167
0.533333
0.537500
0.529167
0.533333
0.533333
0.533333
0.533333
0.537500
0.533333
0.529167
0.537500
0.533333
0.537500
0.533333
0.533333
0.537500
0.537500
0.537500
0.533333
0.529167
0.533333
0.533333
0.533333
0.533333
0.529167
0.529167
0.529167
0.533333
0.529167
0.529167
0.529167
0.529167
0.529167
0.529167
0.529167
0.525000
0.529167
0.533333
0.529167
0.525000
0.529167
0.529167
0.533333
0.529167
0.529167
0.529167
0.529167
0.533333
0.529167
0.533333
0.529167
0.533333
0.529167
0.533333
0.529167
0.533333
0.529167
0.533333
0.529167
0.529167
0.529167
0.529167
0.533333
0.529167
0.533333
0.529167
0.529167
0.533333
0.533333
0.533333
0.529167
0.533333
0.529167
0.533333
0.533333
0.529167
0.533333
0.533333
0.529167
0.533333
0.529167
0.533333
0.529167
0.533333
0.529167
0.533333
0.529167
0.533333
0.529167
0.533333
0.533333
0.533333
0.533333
0.529167
0.529167
0.533333
0.533333
0.529167
0.525000
0.533333
0.533333
0.525000
0.529167
0.529167
0.529167
0.525000
0.529167
0.529167
0.525000
0.529167
0.525000
0.525000
0.529167
0.529167
0.529167
0.529167
0.529167
0.529167
0.529167
0.533333
0.533333
0.533333
0.529167
0.529167
0.533333
0.529167
0.533333
0.529167
0.529167
0.529167
0.533333
0.529167
0.529167
0.533333
0.537500
0.529167
0.533333
0.533333
0.533333
0.537500
0.533333
0.529167
0.537500
0.533333
0.533333
0.529167
0.529167
0.533333
0.529167
0.533333
0.529167
0.525000
0.529167
0.533333
0.529167
0.529167
0.529167
0.533333
0.533333
0.533333
0.529167
0.533333
0.533333
0.533333
0.537500
0.533333
0.537500
0.537500
0.537500
0.533333
0.541667
0.541667
0.541667
0.537500
0.541667
0.545833
0.541667
0.541667
0.537500
0.537500
0.541667
0.537500
0.541667
0.537500
0.541667
0.537500
0.541667
0.537500
0.541667
0.537500
0.541667
0.537500
0.541667
0.537500
0.537500
0.541667
0.537500
0.533333
0.537500
0.537500
0.537500
0.533333
0.537500
0.533333
0.537500
0.533333
0.537500
0.533333
0.533333
0.529167
0.533333
0.533333
0.529167
0.533333
0.525000
0.529167
0.533333
0.529167
0.529167
0.529167
0.529167
0.529167
0.529167
0.529167
0.529167
0.529167
0.529167
0.525000
0.529167
0.529167
0.529167
0.525000
0.529167
0.529167
0.529167
0.525000
0.529167
0.525000
0.529167
0.529167
0.525000
0.529167
0.525000
0.529167
0.529167
0.529167
0.529167
0.525000
0.529167
0.529167
0.529167
0.529167
0.529167
0.529167
0.525000
0.529167
0.529167
0.529167
0.529167
0.529167
0.525000
0.525000
0.533333
0.529167
0.529167
0.529167
0.529167
0.529167
0.533333
0.529167
0.529167
0.533333
0.529167
0.533333
0.529167
0.533333
0.537500
0.533333
0.533333
0.533333
0.533333
0.537500
0.533333
0.533333
0.529167
0.533333
0.529167
0.533333
0.529167
0.529167
0.525000
0.533333
0.529167
0.529167
0.525000
0.529167
0.529167
0.529167
0.529167
0.529167
0.525000
0.533333
0.529167
0.533333
0.529167
0.529167
0.533333
0.533333
0.533333
0.533333
0.529167
0.537500
0.533333
0.537500
0.533333
0.537500
0.537500
0.537500
0.537500
0.533333
0.537500
0.537500
0.537500
0.533333
0.537500
0.537500
0.533333
0.533333
0.533333
0.537500
0.533333
0.533333
0.533333
0.533333
0.537500
0.529167
0.533333
0.529167
0.533333
0.533333
0.529167
0.529167
0.533333
0.529167
0.533333
0.529167
0.533333
0.529167
0.525000
0.533333
0.529167
0.529167
0.529167
0.525000
0.529167
0.529167
0.529167
0.529167
0.529167
0.533333
0.529167
0.529167
0.529167
0.533333
0.529167
0.533333
0.529167
0.529167
0.533333
0.533333
0.533333
0.529167
0.529167
0.529167
0.537500
0.533333
0.533333
0.533333
0.533333
0.529167
0.533333
0.529167
0.533333
0.529167
0.533333
0.529167
0.529167
0.529167
0.529167
0.533333
0.533333
0.529167
0.533333
0.529167
0.533333
0.537500
0.533333
0.529167
0.533333
0.537500
0.533333
0.533333
0.533333
0.533333
0.537500
0.533333
0.533333
0.529167
0.533333
0.533333
0.529167
0.533333
0.529167
0.529167
0.529167
0.529167
0.525000
0.529167
0.525000
0.529167
0.525000
0.529167
0.525000
0.525000
0.529167
0.529167
0.529167
0.525000
0.525000
0.533333
0.529167
0.525000
0.529167
0.529167
0.533333
0.533333
0.529167
0.533333
0.529167
0.533333
0.529167
0.529167
0.529167
0.529167
0.529167
0.533333
0.525000
0.529167
0.533333
0.533333
0.529167
0.529167
0.529167
0.529167
0.533333
0.529167
0.525000
0.529167
0.525000
0.529167
0.525000
0.529167
0.525000
0.525000
0.525000
0.525000
0.529167
0.520833
0.525000
0.520833
0.529167
0.520833
0.525000
0.520833
0.525000
0.525000
0.525000
0.525000
0.525000
0.525000
0.525000
0.529167
0.525000
0.525000
0.525000
0.525000
0.529167
0.525000
0.529167
0.525000
0.525000
0.525000
0.529167
0.525000
0.525000
0.525000
0.525000
0.529167
0.525000
0.529167
0.525000
0.529167
0.525000
0.529167
0.529167
0.525000
0.529167
0.525000
0.529167
0.525000
0.529167
0.529167
0.529167
0.525000
0.529167
0.525000
0.529167
0.529167
0.529167
0.529167
0.525000
0.529167
0.529167
0.529167
0.529167
0.525000
0.529167
0.529167
0.525000
0.525000
0.529167
0.525000
0.529167
0.529167
0.525000
0.529167
0.533333
0.529167
0.533333
0.529167
0.533333
0.533333
0.529167
0.529167
0.533333
0.533333
0.529167
0.529167
0.533333
0.529167
0.529167
0.529167
0.529167
0.533333
0.529167
0.529167
0.529167
0.533333
0.529167
0.533333
0.529167
0.533333
0.529167
0.533333
0.533333
0.533333
0.529167
0.529167
0.533333
0.533333
0.533333
0.529167
0.533333
0.529167
0.537500
0.533333
0.529167
0.533333
0.533333
0.533333
0.533333
0.529167
0.529167
0.533333
0.529167
0.533333
0.529167
0.525000
0.529167
0.533333
0.533333
0.533333
0.529167
0.533333
0.533333
0.537500
0.533333
0.533333
0.533333
0.533333
0.533333
0.529167
0.529167
0.537500
0.529167
0.533333
0.529167
0.533333
0.533333
0.533333
0.533333
0.533333
0.529167
0.537500
0.533333
0.533333
0.537500
0.533333
0.545833
0.541667
0.541667
0.545833
0.541667
0.550000
0.545833
0.545833
0.545833
0.550000
0.545833
0.541667
0.550000
0.550000
0.550000
0.545833
0.541667
0.554167
0.550000
0.554167
0.545833
0.545833
0.550000
0.554167
0.550000
0.545833
0.545833
0.554167
0.550000
0.545833
0.550000
0.554167
0.550000
0.550000
0.541667
0.541667
0.545833
0.541667
0.545833
0.541667
0.537500
0.541667
0.541667
0.541667
0.537500
0.541667
0.541667
0.541667
0.541667
0.537500
0.541667
0.541667
0.541667
0.545833
0.541667
0.541667
0.541667
0.537500
0.541667
0.537500
0.533333
0.537500
0.533333
0.533333
0.533333
0.529167
0.533333
0.529167
0.525000
0.529167
0.525000
0.525000
0.529167
0.525000
0.520833
0.525000
0.525000
0.525000
0.520833
0.520833
0.525000
0.520833
0.516667
0.525000
0.520833
0.520833
0.525000
0.520833
0.525000
0.520833
0.525000
0.520833
0.520833
0.525000
0.525000
0.520833
0.520833
0.520833
0.525000
0.525000
0.520833
0.520833
0.520833
0.525000
0.520833
0.516667
0.520833
0.525000
0.520833
0.520833
0.520833
0.520833
0.525000
0.525000
0.525000
0.525000
0.520833
0.525000
0.525000
0.525000
0.525000
0.525000
0.525000
0.525000
0.520833
0.525000
0.525000
0.525000
0.520833
0.520833
0.520833
0.525000
0.520833
0.520833
0.520833
0.525000
0.520833
0.525000
0.525000
0.520833
0.525000
0.525000
0.520833
0.520833
0.525000
0.525000
0.525000
0.525000
0.520833
0.525000
0.525000
0.525000
0.520833
0.529167
0.525000
0.520833
0.520833
0.437500
0.600000
0.520833
0.520833
0.516667
0.520833
0.516667
0.516667
0.516667
0.516667
0.516667
0.516667
0.512500
0.520833
0.512500
0.516667
0.516667
0.512500
0.520833
0.516667
0.516667
0.512500
0.516667
0.520833
0.520833
0.516667
0.520833
0.520833
0.516667
0.520833
0.520833
0.520833
0.520833
0.520833
0.516667
0.520833
0.520833
0.516667
0.520833
0.516667
0.520833
0.520833
0.520833
0.520833
0.516667
0.525000
0.520833
0.520833
0.650000
0.391667
0.520833
0.516667
0.512500
0.516667
0.520833
0.516667
0.516667
0.516667
0.516667
0.516667
0.516667
0.512500
0.512500
0.516667
0.512500
0.512500
0.512500
0.516667
0.512500
0.512500
0.512500
0.512500
0.516667
0.512500
0.512500
0.508333
0.512500
0.512500
0.512500
0.508333
0.508333
0.512500
0.508333
0.508333
0.512500
0.508333
0.508333
0.508333
0.508333
0.512500
0.508333
0.508333
0.508333
0.508333
0.508333
0.508333
0.512500
0.504167
0.508333
0.512500
0.508333
0.512500
0.508333
0.512500
0.508333
0.508333
0.512500
0.512500
0.512500
0.516667
0.516667
0.516667
0.516667
0.525000
0.525000
0.525000
0.520833
0.525000
0.525000
0.520833
0.520833
0.525000
0.525000
0.520833
0.520833
0.525000
0.525000
0.520833
0.520833
0.525000
0.520833
0.520833
0.520833
0.520833
0.520833
0.520833
0.520833
0.520833
0.516667
0.516667
0.520833
0.516667
0.429167
0.604167
0.516667
0.516667
0.516667
0.520833
0.516667
0.516667
0.516667
0.516667
0.516667
0.520833
0.516667
0.516667
0.516667
0.516667
0.520833
0.516667
0.516667
0.520833
0.516667
0.516667
0.520833
0.520833
0.520833
0.516667
0.520833
0.520833
0.520833
0.520833
0.516667
0.520833
0.520833
0.516667
0.516667
0.516667
0.520833
0.516667
0.512500
0.516667
0.512500
0.516667
0.516667
0.516667
0.495833
0.541667
0.525000
0.525000
0.520833
0.529167
0.529167
0.516667
0.520833
0.470833
0.204167
0.304167
0.316667
0.279167
0.516667
0.050000
0.466667
0.320833
0.191667
0.516667
0.512500
0.516667
0.512500
0.512500
0.508333
0.508333
0.508333
0.508333
0.508333
0.508333
0.504167
0.504167
0.504167
0.504167
0.504167
0.504167
0.500000
0.500000
0.504167
0.504167
0.504167
0.504167
0.504167
0.508333
0.512500
0.508333
0.512500
0.508333
0.512500
0.133333
0.375000
0.512500
0.508333
0.504167
0.508333
0.504167
0.508333
0.508333
0.504167
0.504167
0.504167
0.500000
0.504167
0.500000
0.500000
0.500000
0.495833
0.495833
0.500000
0.495833
0.500000
0.500000
0.500000
0.500000
0.500000
0.500000
0.504167
0.500000
0.500000
0.504167
0.500000
0.504167
0.500000
0.500000
0.500000
0.500000
0.504167
0.500000
0.504167
0.500000
0.500000
0.504167
0.500000
0.504167
0.504167
0.500000
0.500000
0.500000
0.504167
0.500000
0.500000
0.504167
0.500000
0.504167
0.500000
0.500000
0.504167
0.504167
0.504167
0.504167
0.500000
0.504167
0.508333
0.500000
0.504167
0.504167
0.504167
0.500000
0.504167
0.500000
0.504167
0.500000
0.500000
0.495833
0.504167
0.500000
0.495833
0.500000
0.500000
0.500000
0.500000
0.500000
0.500000
0.500000
0.500000
0.500000
0.500000
0.500000
0.500000
0.495833
0.500000
0.500000
0.500000
0.495833
0.500000
0.495833
0.500000
0.495833
0.495833
0.495833
0.495833
0.495833
0.495833
0.495833
0.495833
0.500000
0.495833
0.495833
0.495833
0.495833
0.500000
0.500000
0.495833
0.495833
0.500000
0.504167
0.508333
0.508333
0.508333
0.504167
0.508333
0.512500
0.512500
0.512500
0.508333
0.508333
0.512500
0.508333
0.508333
0.508333
0.508333
0.512500
0.633333
0.383333
0.504167
0.108333
0.400000
0.500000
0.266667
0.741667
0.500000
0.504167
0.504167
0.500000
0.500000
0.500000
0.504167
0.500000
0.500000
0.500000
0.500000
0.500000
0.495833
0.500000
0.500000
0.500000
0.495833
0.500000
0.500000
0.500000
0.500000
0.495833
0.500000
0.504167
0.500000
0.500000
0.500000
0.500000
0.500000
0.504167
0.500000
0.504167
0.504167
0.500000
0.504167
0.508333
0.508333
0.504167
0.504167
0.512500
0.504167
0.508333
0.504167
