0.579167
0.566667
0.579167
0.566667
0.575000
0.562500
0.587500
0.575000
0.583333
0.570833
0.575000
0.579167
0.566667
0.575000
0.579167
0.254167
0.320833
0.554167
0.575000
0.579167
0.579167
0.570833
0.579167
0.579167
0.575000
0.583333
0.575000
0.566667
0.575000
0.570833
0.579167
0.575000
0.570833
0.570833
0.575000
0.579167
0.570833
0.583333
0.575000
0.566667
0.579167
0.575000
0.579167
0.566667
0.575000
0.579167
0.558333
0.579167
0.579167
0.566667
0.570833
0.583333
0.575000
0.562500
0.575000
0.575000
0.579167
0.554167
0.575000
0.579167
0.566667
0.558333
0.562500
0.575000
0.575000
0.666667
0.462500
0.562500
0.579167
0.545833
0.558333
0.570833
0.579167
0.570833
0.566667
0.566667
0.570833
0.562500
0.562500
0.570833
0.566667
0.570833
0.558333
0.566667
0.558333
0.566667
0.562500
0.562500
0.558333
0.566667
0.558333
0.558333
0.562500
0.566667
0.558333
0.558333
0.570833
0.558333
0.566667
0.554167
0.566667
0.558333
0.566667
0.558333
0.566667
0.562500
0.558333
0.579167
0.558333
0.566667
0.545833
0.545833
0.554167
0.562500
0.570833
0.558333
0.566667
0.562500
0.654167
0.450000
0.562500
0.558333
0.554167
0.558333
0.566667
0.550000
0.566667
0.570833
0.566667
0.570833
0.566667
0.558333
0.562500
0.558333
0.570833
0.566667
0.554167
0.566667
0.558333
0.566667
0.562500
0.562500
0.562500
0.562500
0.562500
0.566667
0.558333
0.570833
0.562500
0.562500
0.566667
0.566667
0.562500
0.562500
0.566667
0.545833
0.550000
0.566667
0.566667
0.566667
0.558333
0.562500
0.541667
0.558333
0.562500
0.566667
0.558333
0.550000
0.566667
0.570833
0.562500
0.566667
0.562500
0.566667
0.558333
0.566667
0.558333
0.570833
0.541667
0.562500
0.566667
0.570833
0.558333
0.570833
0.558333
0.570833
0.541667
0.554167
0.675000
0.458333
0.562500
0.562500
0.562500
0.558333
0.562500
0.562500
0.562500
0.562500
0.562500
0.558333
0.570833
0.562500
0.562500
0.566667
0.558333
0.566667
0.562500
0.554167
0.554167
0.562500
0.558333
0.541667
0.554167
0.562500
0.562500
0.554167
0.566667
0.550000
0.566667
0.558333
0.558333
0.558333
0.566667
0.554167
0.566667
0.558333
0.558333
0.566667
0.554167
0.566667
0.566667
0.554167
0.570833
0.558333
0.566667
0.562500
0.566667
0.562500
0.570833
0.554167
0.570833
0.554167
0.558333
0.562500
0.558333
0.566667
0.550000
0.562500
0.558333
0.562500
0.558333
0.558333
0.558333
0.554167
0.562500
0.550000
0.562500
0.570833
0.554167
0.554167
0.562500
0.562500
0.554167
0.562500
0.558333
0.562500
0.558333
0.566667
0.550000
0.562500
0.566667
0.554167
0.566667
0.562500
0.566667
0.562500
0.562500
0.562500
0.558333
0.570833
0.562500
0.566667
0.558333
0.570833
0.362500
0.758333
0.566667
0.562500
0.566667
0.558333
0.570833
0.558333
0.570833
0.558333
0.570833
0.566667
0.558333
0.570833
0.566667
0.558333
0.575000
0.558333
0.575000
0.566667
0.562500
0.566667
0.575000
0.562500
0.570833
0.566667
0.566667
0.566667
0.562500
0.570833
0.554167
0.566667
0.558333
0.566667
0.562500
0.558333
0.566667
0.554167
0.566667
0.562500
0.566667
0.558333
0.566667
0.566667
0.554167
0.570833
0.550000
0.570833
0.550000
0.570833
0.566667
0.566667
0.554167
0.562500
0.570833
0.550000
0.566667
0.562500
0.554167
0.566667
0.550000
0.570833
0.283333
0.270833
0.562500
0.562500
0.550000
0.558333
0.558333
0.554167
0.562500
0.558333
0.562500
0.550000
0.562500
0.558333
0.558333
0.558333
0.558333
0.562500
0.558333
0.550000
0.562500
0.562500
0.554167
0.558333
0.566667
0.550000
0.575000
0.550000
0.562500
0.558333
0.562500
0.558333
0.562500
0.554167
0.570833
0.562500
0.554167
0.566667
0.558333
0.566667
0.562500
0.558333
0.562500
0.558333
0.570833
0.566667
0.558333
0.566667
0.570833
0.562500
0.575000
0.562500
0.566667
0.566667
0.566667
0.562500
0.554167
0.558333
0.566667
0.570833
0.550000
0.579167
0.570833
0.575000
0.541667
0.566667
0.575000
0.566667
0.570833
0.562500
0.570833
0.562500
0.570833
0.554167
0.566667
0.562500
0.562500
0.562500
0.554167
0.566667
0.550000
0.562500
0.554167
0.562500
0.562500
0.550000
0.562500
0.550000
0.562500
0.558333
0.554167
0.562500
0.554167
0.554167
0.562500
0.550000
0.558333
0.562500
0.550000
0.562500
0.550000
0.562500
0.550000
0.562500
0.562500
0.550000
0.562500
0.558333
0.558333
0.562500
0.550000
0.558333
0.566667
0.550000
0.566667
0.554167
0.562500
0.558333
0.554167
0.562500
0.554167
0.558333
0.554167
0.554167
0.550000
0.562500
0.558333
0.545833
0.562500
0.554167
0.554167
0.562500
0.554167
0.562500
0.562500
0.554167
0.562500
0.562500
0.558333
0.562500
0.562500
0.558333
0.566667
0.558333
0.570833
0.558333
0.570833
0.566667
0.558333
0.575000
0.558333
0.570833
0.566667
0.570833
0.566667
0.579167
0.258333
0.300000
0.558333
0.675000
0.458333
0.108333
0.458333
0.558333
0.570833
0.566667
0.554167
0.570833
0.554167
0.575000
0.545833
0.562500
0.566667
0.570833
0.566667
0.570833
0.566667
0.558333
0.566667
0.566667
0.558333
0.575000
0.558333
0.562500
0.312500
0.258333
0.554167
0.562500
0.545833
0.562500
0.554167
0.562500
0.554167
0.637500
0.470833
0.554167
0.554167
0.554167
0.550000
0.554167
0.675000
0.437500
0.558333
0.562500
0.550000
0.554167
0.550000
0.554167
0.558333
0.554167
0.558333
0.562500
0.545833
0.562500
0.558333
0.554167
0.566667
0.550000
0.558333
0.558333
0.662500
0.458333
0.558333
0.558333
0.558333
0.562500
0.545833
0.566667
0.566667
0.554167
0.562500
0.562500
0.554167
0.570833
0.566667
0.554167
0.566667
0.558333
0.562500
0.570833
0.570833
0.566667
0.558333
0.566667
0.537500
0.579167
0.566667
0.554167
0.558333
0.679167
0.562500
0.462500
0.562500
0.558333
0.550000
0.558333
0.575000
1.104167
0.566667
0.562500
0.566667
0.562500
0.558333
0.562500
0.562500
0.558333
0.566667
0.558333
0.562500
0.558333
0.566667
0.550000
0.566667
0.558333
0.558333
0.562500
0.558333
0.562500
0.554167
0.541667
0.562500
0.562500
0.558333
0.537500
0.562500
0.550000
0.545833
0.550000
0.541667
0.554167
0.550000
0.558333
0.550000
0.550000
0.554167
0.541667
0.550000
0.662500
0.441667
0.537500
0.550000
0.558333
0.545833
0.550000
0.550000
0.554167
0.554167
0.545833
0.550000
0.637500
0.475000
0.537500
0.575000
0.545833
0.558333
0.550000
0.550000
0.545833
0.541667
0.545833
0.550000
0.541667
0.550000
0.550000
0.554167
0.550000
0.554167
0.554167
0.550000
0.566667
0.554167
0.570833
0.558333
0.566667
0.579167
0.570833
0.575000
0.583333
0.575000
0.575000
0.587500
0.570833
0.575000
0.583333
0.575000
0.566667
0.583333
0.570833
0.575000
0.575000
0.570833
0.575000
0.562500
0.579167
0.558333
0.575000
0.562500
0.575000
0.562500
0.570833
0.575000
0.558333
0.570833
0.566667
0.566667
0.575000
0.558333
0.570833
0.566667
0.558333
0.575000
0.562500
0.570833
0.566667
0.566667
0.570833
0.554167
0.570833
0.554167
0.566667
0.558333
0.566667
0.558333
0.562500
0.554167
0.566667
0.558333
0.562500
0.562500
0.562500
0.562500
0.558333
0.550000
0.670833
0.433333
0.562500
0.562500
0.554167
0.558333
0.554167
0.562500
0.558333
0.554167
0.554167
0.562500
0.558333
0.558333
0.562500
0.270833
0.287500
0.562500
0.545833
0.562500
0.554167
0.554167
0.562500
0.550000
0.562500
0.558333
0.558333
0.562500
0.554167
0.566667
0.554167
0.562500
0.554167
0.562500
0.558333
0.554167
0.566667
0.550000
0.562500
0.554167
0.554167
0.562500
0.554167
0.558333
0.558333
0.558333
0.554167
0.554167
0.558333
0.558333
0.558333
0.554167
0.566667
0.550000
0.554167
0.545833
0.554167
0.562500
0.558333
0.558333
0.554167
0.558333
0.550000
0.558333
0.550000
0.558333
0.554167
0.554167
0.558333
0.554167
0.558333
0.558333
0.558333
0.558333
0.554167
0.562500
0.554167
0.562500
0.554167
0.562500
0.558333
0.550000
0.562500
0.554167
0.562500
0.558333
0.545833
0.562500
0.558333
0.550000
0.562500
0.554167
0.558333
0.562500
0.545833
0.562500
0.558333
0.550000
0.566667
0.550000
0.562500
0.562500
0.554167
0.562500
0.562500
0.554167
0.558333
0.566667
0.554167
0.562500
0.562500
0.554167
0.562500
0.562500
0.554167
0.566667
0.562500
0.558333
0.566667
0.554167
0.570833
0.554167
0.570833
0.558333
0.566667
0.562500
0.554167
0.570833
0.554167
0.562500
0.554167
0.562500
0.558333
0.558333
0.554167
0.562500
0.550000
0.558333
0.550000
0.558333
0.558333
0.550000
0.562500
0.545833
0.558333
0.550000
0.554167
0.558333
0.562500
0.541667
0.562500
0.545833
0.550000
0.562500
0.541667
0.558333
0.550000
0.550000
0.554167
0.545833
0.558333
0.545833
0.558333
0.550000
0.558333
0.550000
0.558333
0.558333
0.554167
0.558333
0.554167
0.562500
0.554167
0.562500
0.554167
0.566667
0.550000
0.566667
0.554167
0.562500
0.562500
0.562500
0.558333
0.558333
0.562500
0.558333
0.558333
0.554167
0.558333
0.558333
0.545833
0.558333
0.554167
0.554167
0.562500
0.545833
0.566667
0.550000
0.558333
0.562500
0.550000
0.562500
0.558333
0.562500
0.554167
0.566667
0.558333
0.566667
0.554167
0.566667
0.554167
0.566667
0.562500
0.554167
0.562500
0.562500
0.558333
0.566667
0.558333
0.562500
0.570833
0.558333
0.558333
0.566667
0.562500
0.566667
0.562500
0.554167
0.558333
0.558333
0.562500
0.545833
0.566667
0.550000
0.558333
0.550000
0.558333
0.550000
0.562500
0.550000
0.562500
0.545833
0.566667
0.554167
0.558333
0.554167
0.562500
0.554167
0.562500
0.550000
0.558333
0.554167
0.558333
0.562500
0.545833
0.566667
0.558333
0.550000
0.566667
0.558333
0.550000
0.558333
0.550000
0.558333
0.562500
0.550000
0.558333
0.545833
0.558333
0.558333
0.558333
0.558333
0.550000
0.562500
0.550000
0.562500
0.550000
0.554167
0.566667
0.550000
0.558333
0.558333
0.558333
0.550000
0.554167
0.566667
0.545833
0.554167
0.562500
0.554167
0.558333
0.562500
0.562500
0.558333
0.562500
0.566667
0.554167
0.566667
0.558333
0.570833
0.558333
0.566667
0.566667
0.562500
0.558333
0.566667
0.570833
0.550000
0.558333
0.570833
0.566667
0.570833
0.558333
0.566667
0.566667
0.558333
0.558333
0.570833
0.566667
0.558333
0.566667
0.562500
0.566667
0.566667
0.558333
0.570833
0.566667
0.558333
0.575000
0.550000
0.570833
0.558333
0.566667
0.570833
0.554167
0.570833
0.554167
0.570833
0.558333
0.566667
0.554167
0.558333
0.562500
0.562500
0.562500
0.558333
0.545833
0.550000
0.562500
0.554167
0.562500
0.541667
0.558333
0.558333
0.554167
0.550000
0.554167
0.558333
0.545833
0.545833
0.554167
0.558333
0.558333
0.550000
0.545833
0.554167
0.541667
0.554167
0.541667
0.558333
0.541667
0.554167
0.541667
0.558333
0.541667
0.550000
0.541667
0.554167
