0.558333
0.566667
0.562500
0.558333
0.562500
0.562500
0.566667
0.562500
0.558333
0.562500
0.562500
0.566667
0.566667
0.562500
0.562500
0.566667
0.570833
0.562500
0.562500
0.562500
0.566667
0.570833
0.562500
0.566667
0.562500
0.570833
0.562500
0.562500
0.566667
0.570833
0.562500
0.562500
0.570833
0.562500
0.558333
0.566667
0.566667
0.562500
0.558333
0.562500
0.566667
0.558333
0.562500
0.562500
0.566667
0.562500
0.558333
0.562500
0.566667
0.566667
0.558333
0.562500
0.562500
0.566667
0.566667
0.558333
0.558333
0.562500
0.566667
0.566667
0.558333
0.562500
0.562500
0.562500
0.570833
0.562500
0.562500
0.562500
0.570833
0.566667
0.566667
0.566667
0.562500
0.570833
0.566667
0.566667
0.562500
0.566667
0.570833
0.570833
0.566667
0.562500
0.566667
0.570833
0.575000
0.566667
0.566667
0.566667
0.575000
0.566667
0.566667
0.562500
0.570833
0.570833
0.566667
0.562500
0.566667
0.566667
0.570833
0.562500
0.566667
0.562500
0.566667
0.570833
0.566667
0.562500
0.562500
0.566667
0.575000
0.562500
0.562500
0.566667
0.566667
0.570833
0.562500
0.566667
0.562500
0.566667
0.570833
0.562500
0.562500
0.562500
0.562500
0.570833
0.570833
0.562500
0.562500
0.562500
0.566667
0.570833
0.562500
0.562500
0.566667
0.570833
0.562500
0.562500
0.562500
0.566667
0.566667
0.570833
0.562500
0.566667
0.566667
0.570833
0.566667
0.566667
0.566667
0.570833
0.570833
0.562500
0.566667
0.566667
0.575000
0.562500
0.566667
0.570833
0.570833
0.575000
0.562500
0.566667
0.570833
0.575000
0.566667
0.566667
0.566667
0.566667
0.575000
0.566667
0.566667
0.566667
0.566667
0.575000
0.566667
0.562500
0.566667
0.566667
0.570833
0.566667
0.562500
0.562500
0.566667
0.566667
0.570833
0.562500
0.562500
0.562500
0.566667
0.204167
0.504167
0.441667
0.541667
0.562500
0.562500
0.566667
0.558333
0.562500
0.558333
0.566667
0.566667
0.558333
0.562500
0.558333
0.562500
0.570833
0.562500
0.558333
0.291667
0.829167
0.562500
0.566667
0.562500
0.562500
0.562500
0.562500
0.566667
0.570833
0.562500
0.562500
0.562500
0.562500
0.566667
0.570833
0.562500
0.562500
0.562500
0.566667
0.570833
0.562500
0.562500
0.562500
0.562500
0.575000
0.562500
0.562500
0.562500
0.566667
0.566667
0.566667
0.562500
0.562500
0.566667
0.562500
0.570833
0.562500
0.558333
0.566667
0.566667
0.562500
0.562500
0.566667
0.245833
0.320833
0.562500
0.566667
0.562500
0.562500
0.566667
0.570833
0.562500
0.558333
0.562500
0.566667
0.566667
0.562500
0.558333
0.562500
0.566667
0.566667
0.558333
0.562500
0.562500
0.562500
0.566667
0.562500
0.558333
0.562500
0.566667
0.562500
0.558333
0.562500
0.562500
0.566667
0.562500
0.558333
0.562500
0.295833
0.358333
0.575000
0.458333
0.566667
0.562500
0.566667
0.566667
0.562500
0.562500
0.562500
0.570833
0.566667
0.562500
0.566667
0.566667
0.570833
0.566667
0.566667
0.566667
0.566667
0.575000
0.570833
0.225000
0.487500
0.408333
0.362500
0.783333
0.570833
0.558333
0.566667
0.750000
0.379167
0.562500
0.562500
0.566667
0.570833
0.558333
0.558333
0.562500
0.566667
0.570833
0.558333
0.562500
0.562500
0.566667
0.566667
0.562500
0.562500
0.562500
0.566667
0.566667
0.562500
0.562500
0.562500
0.566667
0.566667
0.562500
0.562500
0.562500
0.566667
0.570833
0.562500
0.562500
0.562500
0.566667
0.566667
0.562500
0.562500
0.562500
0.566667
0.566667
0.562500
0.562500
0.562500
0.562500
0.570833
0.562500
0.562500
0.562500
0.566667
0.566667
0.562500
0.562500
0.566667
0.566667
0.570833
0.562500
0.566667
0.566667
0.566667
0.575000
0.562500
0.566667
0.566667
0.570833
0.566667
0.566667
0.566667
0.566667
0.570833
0.566667
0.566667
0.566667
0.566667
0.570833
0.570833
0.562500
0.566667
0.562500
0.570833
0.570833
0.562500
0.562500
0.566667
0.566667
0.925000
0.770833
0.570833
0.712500
0.304167
0.666667
0.562500
0.566667
0.566667
0.566667
0.562500
0.562500
0.566667
0.570833
0.562500
0.566667
0.562500
0.570833
0.570833
0.566667
0.562500
0.566667
0.575000
0.562500
0.566667
0.566667
0.566667
0.566667
0.566667
0.562500
0.566667
0.566667
0.570833
0.562500
0.562500
0.562500
0.566667
0.566667
0.066667
0.504167
0.558333
0.562500
0.562500
0.566667
0.566667
0.562500
0.562500
0.562500
0.566667
0.566667
0.562500
0.562500
0.562500
0.566667
0.566667
0.562500
0.562500
0.562500
0.566667
0.570833
0.562500
0.562500
0.562500
0.570833
0.566667
0.562500
0.562500
0.562500
0.566667
0.566667
0.562500
0.562500
0.562500
0.566667
0.570833
0.562500
0.566667
0.562500
0.566667
0.566667
0.562500
0.562500
0.566667
0.570833
0.562500
0.562500
0.562500
0.566667
0.566667
0.562500
0.566667
0.562500
0.562500
0.570833
0.562500
0.566667
0.562500
0.566667
0.570833
0.566667
0.562500
0.566667
0.566667
0.575000
0.566667
0.562500
0.566667
0.570833
0.566667
0.566667
0.562500
0.566667
0.570833
0.566667
0.562500
0.562500
0.566667
0.570833
0.562500
0.558333
0.566667
0.562500
0.566667
0.562500
0.562500
0.562500
0.562500
0.566667
0.562500
0.558333
0.562500
0.558333
0.566667
0.562500
0.558333
0.558333
0.562500
0.566667
0.558333
0.562500
0.558333
0.562500
0.566667
0.562500
0.562500
0.562500
0.562500
0.570833
0.562500
0.562500
0.241667
0.887500
0.570833
0.562500
0.566667
0.566667
0.566667
0.575000
0.566667
0.566667
0.225000
0.341667
0.566667
0.575000
0.566667
0.562500
0.566667
0.566667
0.575000
0.562500
0.562500
0.562500
0.570833
0.570833
0.566667
0.562500
0.562500
0.566667
0.566667
0.566667
0.562500
0.562500
0.562500
0.570833
0.566667
0.562500
0.566667
0.562500
0.566667
0.570833
0.562500
0.562500
0.562500
0.566667
0.570833
0.562500
0.562500
0.562500
0.562500
0.570833
0.562500
0.562500
0.558333
0.566667
0.566667
0.566667
0.562500
0.562500
0.566667
0.566667
0.562500
0.562500
0.562500
0.566667
0.570833
0.566667
0.562500
0.562500
0.562500
0.566667
0.570833
0.562500
0.562500
0.562500
0.566667
0.562500
0.562500
0.566667
0.562500
0.566667
0.562500
0.566667
0.570833
0.562500
0.566667
0.562500
0.566667
0.570833
0.570833
0.575000
0.566667
0.570833
0.566667
0.575000
0.575000
0.566667
0.570833
0.570833
0.575000
0.566667
0.566667
0.566667
0.570833
0.570833
0.562500
0.566667
0.566667
0.570833
0.566667
0.566667
0.562500
0.566667
0.575000
0.562500
0.566667
0.562500
0.566667
0.570833
0.562500
0.566667
0.562500
0.566667
0.570833
0.562500
0.562500
0.566667
0.562500
0.570833
0.566667
0.562500
0.566667
0.562500
0.566667
0.575000
0.558333
0.495833
0.625000
0.566667
0.566667
0.566667
0.562500
0.562500
0.566667
0.570833
0.562500
0.558333
0.562500
0.566667
0.575000
0.562500
0.562500
0.562500
0.566667
0.570833
0.562500
0.562500
0.562500
0.566667
0.566667
0.570833
0.562500
0.562500
0.562500
0.566667
0.570833
0.558333
0.562500
0.562500
0.562500
0.566667
0.566667
0.562500
0.562500
0.562500
0.566667
0.566667
0.570833
0.562500
0.325000
0.241667
0.558333
0.458333
0.320833
0.683333
0.233333
0.316667
0.250000
0.595833
0.579167
0.537500
0.308333
0.316667
0.308333
0.279167
0.583333
0.591667
0.754167
0.408333
0.587500
0.587500
0.587500
0.579167
0.595833
0.487500
0.100000
0.358333
0.808333
0.591667
0.583333
0.579167
0.287500
0.483333
0.383333
0.579167
0.575000
0.579167
0.575000
0.575000
0.250000
0.325000
0.537500
0.025000
0.566667
0.350000
0.216667
0.570833
0.570833
0.566667
0.570833
0.566667
0.566667
0.570833
0.570833
0.562500
0.558333
0.566667
0.566667
0.570833
0.562500
0.554167
0.554167
0.566667
0.566667
0.554167
0.558333
0.550000
0.558333
0.562500
0.558333
0.550000
0.558333
0.558333
0.558333
0.262500
0.245833
0.245833
0.908333
0.558333
0.550000
0.550000
0.554167
0.554167
0.554167
0.550000
0.550000
0.554167
0.558333
0.550000
0.550000
0.554167
0.320833
0.308333
0.429167
0.225000
0.383333
0.095833
0.458333
0.295833
0.258333
0.558333
0.562500
0.558333
0.558333
0.550000
0.558333
0.562500
0.558333
0.554167
0.550000
0.558333
0.558333
0.558333
0.550000
0.550000
0.554167
0.562500
0.550000
0.550000
0.554167
0.554167
0.554167
0.550000
0.554167
0.700000
0.195833
0.208333
0.379167
0.300000
0.429167
0.562500
0.558333
0.562500
0.558333
0.558333
0.558333
0.558333
0.562500
0.554167
0.550000
0.558333
0.558333
0.554167
0.554167
0.554167
0.554167
0.562500
0.550000
0.550000
0.554167
0.558333
0.554167
0.550000
0.550000
0.558333
0.554167
0.554167
0.550000
0.550000
0.550000
0.558333
0.550000
0.550000
0.550000
0.554167
0.554167
0.550000
0.545833
0.550000
0.550000
0.558333
0.545833
0.545833
0.550000
0.554167
0.554167
0.537500
0.333333
0.775000
0.550000
0.558333
0.550000
0.558333
0.558333
0.554167
0.550000
0.554167
0.558333
0.558333
0.550000
0.554167
0.554167
0.558333
0.550000
0.554167
0.545833
0.558333
0.558333
0.550000
0.550000
0.550000
0.554167
0.554167
0.550000
0.550000
0.550000
0.554167
0.554167
0.550000
0.545833
0.550000
0.550000
0.554167
0.545833
0.545833
0.554167
0.554167
0.545833
0.545833
0.550000
0.554167
0.554167
0.550000
0.550000
0.550000
0.554167
0.554167
0.550000
0.550000
0.550000
0.558333
0.554167
0.550000
0.550000
0.554167
0.558333
0.554167
0.550000
0.550000
0.558333
0.558333
0.550000
0.550000
0.554167
0.558333
0.550000
0.554167
0.554167
0.554167
0.562500
0.554167
0.554167
0.558333
0.566667
0.570833
0.570833
0.566667
0.570833
0.579167
0.587500
0.583333
0.579167
0.587500
0.591667
0.587500
0.583333
0.591667
0.595833
0.587500
0.587500
0.587500
0.595833
0.583333
0.583333
0.579167
0.587500
0.579167
0.575000
0.570833
0.575000
0.575000
0.566667
0.570833
0.570833
0.566667
0.562500
0.570833
0.562500
0.562500
0.562500
0.566667
0.558333
0.558333
0.558333
0.566667
0.558333
0.558333
0.554167
0.562500
0.558333
0.558333
0.558333
0.558333
0.558333
0.562500
0.558333
0.554167
0.558333
0.566667
0.554167
0.558333
0.562500
0.566667
0.566667
0.562500
0.566667
0.570833
0.570833
0.570833
0.570833
0.579167
0.587500
0.587500
0.587500
0.583333
0.591667
0.591667
0.600000
0.604167
0.604167
0.612500
0.612500
0.608333
0.604167
0.608333
0.604167
0.600000
0.591667
0.595833
0.595833
0.587500
0.587500
0.583333
0.587500
0.575000
0.575000
0.570833
0.616667
0.620833
0.475000
0.570833
0.566667
0.566667
0.562500
0.558333
0.566667
0.566667
0.562500
0.558333
0.558333
0.562500
0.566667
0.558333
0.558333
0.558333
0.562500
0.566667
0.558333
0.558333
0.558333
0.558333
0.566667
0.558333
0.558333
0.558333
0.562500
0.562500
0.558333
0.558333
0.554167
0.558333
0.562500
0.554167
0.095833
0.462500
0.429167
0.695833
0.566667
0.654167
0.470833
0.558333
0.562500
0.566667
0.558333
0.558333
0.558333
0.562500
0.562500
