0.554167
0.554167
0.545833
0.550000
0.554167
0.545833
0.554167
0.545833
0.554167
0.550000
0.545833
0.554167
0.550000
0.554167
0.550000
0.554167
0.550000
0.554167
0.554167
0.554167
0.554167
0.554167
0.554167
0.554167
0.558333
0.558333
0.558333
0.554167
0.562500
0.558333
0.558333
0.558333
0.554167
0.562500
0.550000
0.554167
0.558333
0.562500
0.550000
0.558333
0.550000
0.554167
0.558333
0.550000
0.550000
0.558333
0.550000
0.554167
0.554167
0.545833
0.558333
0.554167
0.558333
0.550000
0.558333
0.562500
0.554167
0.558333
0.566667
0.562500
0.554167
0.562500
0.562500
0.558333
0.562500
0.554167
0.562500
0.558333
0.554167
0.570833
0.558333
0.558333
0.562500
0.566667
0.562500
0.570833
0.558333
0.570833
0.558333
0.570833
0.566667
0.558333
0.575000
0.570833
0.562500
0.558333
0.575000
0.562500
0.570833
0.566667
0.570833
0.566667
0.562500
0.566667
0.566667
0.566667
0.562500
0.562500
0.566667
0.562500
0.566667
0.566667
0.562500
0.570833
0.562500
0.566667
0.570833
0.566667
0.562500
0.570833
0.570833
0.562500
0.570833
0.554167
0.575000
0.562500
0.562500
0.570833
0.558333
0.558333
0.562500
0.554167
0.558333
0.558333
0.554167
0.558333
0.550000
0.562500
0.550000
0.550000
0.550000
0.562500
0.545833
0.558333
0.550000
0.554167
0.558333
0.545833
0.554167
0.558333
0.554167
0.550000
0.554167
0.554167
0.554167
0.558333
0.545833
0.562500
0.550000
0.562500
0.562500
0.550000
0.562500
0.554167
0.558333
0.558333
0.562500
0.558333
0.562500
0.554167
0.562500
0.558333
0.554167
0.566667
0.554167
0.554167
0.558333
0.558333
0.554167
0.562500
0.554167
0.562500
0.550000
0.562500
0.554167
0.550000
0.566667
0.550000
0.558333
0.558333
0.558333
0.554167
0.558333
0.554167
0.558333
0.562500
0.550000
0.558333
0.558333
0.550000
0.558333
0.558333
0.554167
0.550000
0.562500
0.550000
0.554167
0.562500
0.545833
0.554167
0.562500
0.545833
0.558333
0.558333
0.554167
0.554167
0.554167
0.558333
0.554167
0.558333
0.554167
0.558333
0.554167
0.554167
0.562500
0.550000
0.562500
0.558333
0.558333
0.554167
0.562500
0.554167
0.562500
0.558333
0.554167
0.566667
0.554167
0.566667
0.554167
0.566667
0.558333
0.558333
0.566667
0.558333
0.566667
0.562500
0.562500
0.570833
0.558333
0.570833
0.562500
0.562500
0.570833
0.566667
0.562500
0.562500
0.575000
0.562500
0.570833
0.566667
0.562500
0.570833
0.562500
0.566667
0.562500
0.562500
0.562500
0.562500
0.562500
0.562500
0.562500
0.558333
0.562500
0.562500
0.562500
0.566667
0.558333
0.566667
0.566667
0.566667
0.562500
0.570833
0.566667
0.570833
0.570833
0.566667
0.575000
0.570833
0.570833
0.570833
0.570833
0.566667
0.575000
0.566667
0.579167
0.566667
0.570833
0.566667
0.566667
0.570833
0.566667
0.566667
0.562500
0.566667
0.562500
0.566667
0.566667
0.562500
0.570833
0.562500
0.570833
0.570833
0.558333
0.575000
0.575000
0.570833
0.566667
0.575000
0.566667
0.575000
0.566667
0.575000
0.570833
0.570833
0.566667
0.566667
0.575000
0.562500
0.575000
0.566667
0.566667
0.562500
0.579167
0.562500
0.575000
0.562500
0.566667
0.566667
0.562500
0.562500
0.562500
0.562500
0.562500
0.558333
0.566667
0.562500
0.562500
0.562500
0.558333
0.562500
0.562500
0.558333
0.558333
0.558333
0.562500
0.554167
0.554167
0.562500
0.554167
0.554167
0.558333
0.550000
0.562500
0.554167
0.554167
0.558333
0.558333
0.558333
0.558333
0.558333
0.554167
0.562500
0.558333
0.558333
0.558333
0.554167
0.558333
0.558333
0.554167
0.554167
0.558333
0.554167
0.558333
0.554167
0.550000
0.558333
0.550000
0.554167
0.554167
0.558333
0.550000
0.550000
0.554167
0.554167
0.545833
0.554167
0.554167
0.554167
0.554167
0.550000
0.554167
0.554167
0.554167
0.558333
0.554167
0.554167
0.554167
0.554167
0.550000
0.545833
0.558333
0.550000
0.562500
0.550000
0.558333
0.550000
0.558333
0.558333
0.550000
0.558333
0.550000
0.558333
0.554167
0.558333
0.554167
0.566667
0.550000
0.562500
0.562500
0.554167
0.558333
0.554167
0.562500
0.562500
0.558333
0.558333
0.566667
0.558333
0.566667
0.558333
0.558333
0.566667
0.558333
0.562500
0.562500
0.570833
0.287500
0.266667
0.562500
0.566667
0.191667
0.345833
0.554167
0.558333
0.562500
0.554167
0.558333
0.541667
0.562500
0.541667
0.562500
0.545833
0.554167
0.670833
0.454167
0.545833
0.566667
0.550000
0.666667
0.458333
0.550000
0.562500
0.558333
0.550000
0.562500
0.550000
0.562500
0.554167
0.554167
0.558333
0.558333
0.558333
0.554167
0.545833
0.570833
0.545833
0.558333
0.554167
0.550000
0.558333
0.550000
0.566667
0.308333
0.237500
0.554167
0.550000
0.550000
0.558333
0.541667
0.554167
0.550000
0.541667
0.554167
0.550000
0.558333
0.541667
0.550000
0.554167
0.541667
0.554167
0.545833
0.554167
0.550000
0.545833
0.562500
0.550000
0.545833
0.554167
0.558333
0.550000
0.558333
0.550000
0.658333
0.458333
0.533333
0.566667
0.570833
0.541667
0.554167
0.550000
0.245833
0.858333
0.558333
0.550000
0.550000
0.545833
0.554167
0.545833
0.550000
0.550000
0.550000
0.554167
0.554167
0.545833
0.558333
0.550000
0.550000
0.558333
0.545833
0.558333
0.554167
0.545833
0.554167
0.541667
0.562500
0.554167
0.554167
0.537500
0.566667
0.545833
0.554167
0.537500
0.566667
0.541667
0.554167
0.545833
0.545833
0.254167
0.300000
0.541667
0.545833
0.537500
0.541667
0.537500
0.554167
0.520833
0.554167
0.529167
0.537500
0.550000
0.541667
0.533333
0.545833
0.545833
0.529167
0.550000
0.537500
0.541667
0.525000
0.537500
0.545833
0.525000
0.541667
0.545833
0.541667
0.529167
0.545833
0.541667
0.537500
0.545833
0.533333
0.550000
0.537500
0.545833
0.541667
0.541667
0.550000
0.541667
0.541667
0.550000
0.537500
0.550000
0.550000
0.533333
0.566667
0.533333
0.550000
0.650000
0.437500
0.545833
0.541667
0.550000
0.537500
0.545833
0.550000
0.345833
0.733333
0.545833
0.520833
0.566667
0.645833
0.420833
0.570833
0.541667
0.558333
0.533333
0.291667
0.262500
0.537500
0.350000
0.737500
0.541667
0.545833
0.537500
0.545833
0.545833
0.533333
0.554167
0.545833
0.550000
0.533333
0.545833
0.545833
0.537500
0.541667
0.545833
0.533333
0.541667
0.537500
0.550000
0.533333
0.541667
0.541667
0.541667
0.550000
0.545833
0.550000
0.554167
0.545833
0.558333
0.550000
0.550000
0.558333
0.550000
0.558333
0.550000
0.554167
0.562500
0.545833
0.554167
0.562500
0.550000
0.558333
0.558333
0.550000
0.558333
0.554167
0.558333
0.562500
0.554167
0.550000
0.562500
0.558333
0.550000
0.562500
0.545833
0.558333
0.562500
0.550000
0.562500
0.562500
0.550000
0.566667
0.554167
0.562500
0.558333
0.570833
0.550000
0.570833
0.554167
0.558333
0.566667
0.550000
0.562500
0.558333
0.545833
0.554167
0.562500
0.558333
0.545833
0.554167
0.554167
0.545833
0.554167
0.558333
0.541667
0.554167
0.554167
0.541667
0.554167
0.550000
0.550000
0.545833
0.550000
0.558333
0.537500
0.554167
0.550000
0.545833
0.550000
0.541667
0.554167
0.541667
0.550000
0.554167
0.550000
0.541667
0.550000
0.550000
0.545833
0.554167
0.545833
0.545833
0.554167
0.545833
0.545833
0.558333
0.550000
0.545833
0.554167
0.545833
0.541667
0.554167
0.550000
0.541667
0.550000
0.545833
0.545833
0.541667
1.083333
0.554167
0.537500
0.533333
0.545833
0.541667
0.537500
0.537500
0.533333
0.533333
0.537500
0.533333
0.541667
0.541667
0.158333
0.929167
0.541667
0.545833
0.545833
0.537500
0.545833
0.541667
0.541667
0.545833
0.537500
0.545833
0.545833
0.541667
0.550000
0.545833
0.545833
0.541667
0.541667
0.550000
0.537500
0.554167
0.541667
0.550000
0.545833
0.545833
0.545833
0.541667
0.545833
0.554167
0.275000
0.279167
0.541667
0.654167
0.445833
0.466667
0.737500
0.437500
0.541667
0.529167
0.550000
0.662500
0.191667
0.770833
0.537500
0.529167
0.541667
0.529167
0.533333
0.537500
0.533333
0.537500
0.533333
0.537500
0.537500
0.529167
0.537500
0.545833
0.525000
0.541667
0.537500
0.533333
0.529167
0.545833
0.533333
0.545833
0.533333
0.525000
0.541667
0.541667
0.525000
0.529167
0.554167
0.520833
0.537500
0.537500
0.533333
0.529167
0.533333
0.533333
0.537500
0.537500
0.537500
0.529167
0.529167
0.541667
0.529167
0.541667
0.533333
0.533333
0.537500
0.529167
0.525000
0.550000
0.537500
0.550000
0.633333
0.437500
0.533333
0.541667
0.537500
0.529167
0.541667
0.541667
0.533333
0.541667
0.629167
0.437500
0.533333
0.625000
0.579167
0.416667
0.300000
0.879167
0.425000
0.983333
0.070833
0.541667
0.533333
0.541667
0.529167
0.537500
0.533333
0.525000
0.637500
0.437500
0.525000
0.537500
0.537500
0.537500
0.516667
0.545833
0.541667
0.520833
0.541667
0.116667
0.416667
0.529167
0.541667
0.629167
0.429167
0.525000
0.541667
0.508333
0.550000
0.537500
0.512500
0.554167
0.637500
0.425000
0.537500
0.529167
0.629167
0.445833
0.525000
0.529167
0.529167
0.641667
0.970833
0.529167
0.541667
0.533333
0.529167
0.533333
0.620833
0.554167
0.425000
0.537500
0.533333
0.837500
0.237500
0.529167
0.537500
0.533333
0.537500
0.529167
0.537500
0.529167
0.554167
1.058333
0.529167
0.537500
0.525000
0.329167
0.216667
0.525000
0.533333
0.533333
0.537500
0.533333
1.062500
0.516667
0.541667
0.520833
0.541667
0.525000
0.537500
0.533333
0.529167
1.054167
1.066667
1.058333
1.058333
0.533333
0.525000
1.054167
0.554167
1.054167
0.537500
0.525000
0.545833
0.529167
0.641667
0.537500
0.541667
0.441667
0.537500
0.525000
0.541667
0.641667
0.970833
0.545833
0.529167
1.095833
0.529167
0.533333
1.091667
0.550000
0.537500
0.545833
0.529167
0.533333
1.091667
0.541667
0.541667
1.083333
0.533333
1.079167
0.550000
0.545833
0.541667
0.533333
0.537500
0.537500
1.083333
0.537500
0.650000
0.429167
0.541667
0.550000
0.520833
0.545833
0.537500
0.541667
0.537500
0.637500
0.433333
0.541667
0.641667
0.429167
0.525000
0.520833
0.554167
0.533333
0.533333
0.537500
0.525000
1.070833
0.529167
0.529167
0.537500
0.525000
0.541667
0.525000
0.525000
0.545833
0.525000
0.541667
0.516667
0.545833
0.545833
0.520833
0.541667
0.275000
0.262500
0.554167
0.454167
0.679167
0.433333
0.591667
0.091667
0.320833
0.670833
0.529167
0.525000
0.533333
0.745833
0.295833
0.445833
1.033333
0.541667
0.520833
0.533333
0.629167
0.429167
0.529167
0.508333
0.537500
0.537500
0.529167
0.325000
0.195833
0.516667
1.054167
0.537500
0.533333
0.525000
0.533333
0.304167
0.329167
0.508333
0.441667
0.525000
1.062500
0.525000
0.633333
0.504167
0.441667
0.529167
0.529167
0.512500
0.633333
0.537500
0.529167
0.233333
0.175000
0.541667
0.279167
0.358333
0.350000
0.079167
0.525000
0.529167
0.525000
0.529167
0.529167
0.529167
0.529167
0.525000
0.541667
0.529167
0.529167
0.533333
0.533333
0.525000
0.529167
0.529167
0.537500
