0.545833
0.541667
0.541667
0.545833
0.541667
0.541667
0.541667
0.541667
0.545833
0.545833
0.541667
0.541667
0.541667
0.545833
0.545833
0.541667
0.541667
0.541667
0.541667
0.545833
0.541667
0.541667
0.541667
0.541667
0.541667
0.541667
0.537500
0.541667
0.541667
0.541667
0.541667
0.541667
0.537500
0.541667
0.537500
0.537500
0.541667
0.541667
0.537500
0.541667
0.537500
0.537500
0.537500
0.537500
0.541667
0.541667
0.533333
0.537500
0.541667
0.537500
0.537500
0.533333
0.541667
0.537500
0.537500
0.537500
0.537500
0.537500
0.541667
0.545833
0.554167
0.554167
0.550000
0.554167
0.554167
0.554167
0.550000
0.550000
0.554167
0.554167
0.550000
0.545833
0.550000
0.550000
0.545833
0.550000
0.545833
0.545833
0.541667
0.545833
0.545833
0.541667
0.545833
0.541667
0.454167
0.470833
0.658333
0.545833
0.541667
0.541667
0.541667
0.541667
0.541667
0.541667
0.550000
0.525000
0.575000
0.554167
0.554167
0.483333
0.625000
0.554167
0.558333
0.558333
0.562500
0.554167
0.558333
0.550000
0.554167
0.550000
0.550000
0.545833
0.545833
0.545833
0.545833
0.541667
0.545833
0.537500
0.537500
0.541667
0.537500
0.533333
0.533333
0.533333
0.533333
0.529167
0.533333
0.533333
0.533333
0.533333
0.537500
0.533333
0.533333
0.533333
0.533333
0.537500
0.533333
0.537500
0.541667
0.533333
0.537500
0.537500
0.533333
0.537500
0.533333
0.533333
0.529167
0.529167
0.533333
0.529167
0.529167
0.525000
0.520833
0.529167
1.045833
0.520833
0.520833
0.520833
0.525000
0.520833
0.516667
0.520833
0.520833
0.520833
0.520833
0.516667
0.525000
0.520833
0.520833
0.520833
0.520833
0.520833
0.525000
0.520833
0.525000
0.520833
0.529167
0.525000
0.525000
0.520833
0.529167
0.533333
0.312500
0.750000
0.529167
0.533333
0.529167
0.529167
0.529167
0.533333
0.533333
0.529167
0.529167
0.529167
0.533333
0.533333
0.525000
0.533333
0.529167
0.529167
0.529167
0.529167
0.533333
0.525000
0.529167
0.533333
0.533333
0.529167
0.533333
0.529167
0.533333
0.529167
0.529167
0.529167
0.529167
0.529167
0.529167
0.529167
0.533333
0.525000
0.529167
0.529167
0.529167
0.529167
0.533333
0.533333
0.529167
0.533333
0.537500
0.529167
0.537500
0.537500
0.533333
0.537500
0.537500
0.541667
0.537500
0.533333
0.537500
0.537500
0.537500
0.537500
0.533333
0.541667
0.537500
0.533333
0.537500
0.537500
0.537500
0.537500
0.533333
0.537500
0.537500
0.537500
0.533333
0.537500
0.533333
0.537500
0.533333
0.537500
0.537500
0.537500
0.533333
0.537500
0.537500
0.537500
0.537500
0.533333
0.537500
0.537500
0.537500
0.537500
0.537500
0.537500
0.537500
0.537500
0.537500
0.537500
0.537500
0.537500
0.537500
0.533333
0.537500
0.533333
0.537500
0.537500
0.537500
0.537500
0.541667
0.533333
0.537500
0.537500
0.537500
0.533333
0.537500
0.533333
0.537500
0.533333
0.529167
0.537500
0.533333
0.529167
0.533333
0.529167
0.533333
0.533333
0.533333
0.533333
0.537500
0.537500
0.541667
0.537500
0.545833
0.550000
0.554167
0.554167
0.554167
0.554167
0.554167
0.550000
0.554167
0.550000
0.545833
0.541667
0.545833
0.545833
0.541667
0.537500
0.541667
0.537500
0.537500
0.541667
0.537500
0.533333
0.533333
0.537500
0.537500
0.529167
0.533333
0.537500
0.529167
0.537500
0.529167
0.533333
0.533333
0.533333
0.533333
0.533333
0.533333
0.529167
0.537500
0.533333
0.537500
0.533333
0.533333
0.533333
0.533333
0.533333
0.537500
0.533333
0.537500
0.537500
0.537500
0.537500
0.537500
0.533333
0.537500
0.537500
0.533333
0.537500
0.537500
0.537500
0.533333
0.533333
0.520833
0.550000
0.533333
0.537500
0.537500
0.537500
0.537500
0.537500
0.537500
0.537500
0.537500
0.537500
0.537500
0.537500
0.541667
0.537500
0.533333
0.533333
0.541667
0.533333
0.537500
0.537500
0.533333
0.537500
0.537500
0.533333
0.533333
0.533333
0.533333
0.529167
0.533333
0.533333
0.533333
0.533333
0.533333
0.529167
0.533333
0.533333
0.533333
0.533333
0.529167
0.533333
0.529167
0.537500
0.529167
0.533333
0.529167
0.537500
0.533333
0.533333
0.533333
0.533333
0.537500
0.533333
0.533333
0.537500
0.533333
0.533333
0.537500
0.533333
0.533333
0.533333
0.533333
0.537500
0.533333
0.537500
0.533333
0.533333
0.533333
0.537500
0.533333
0.537500
0.537500
0.537500
0.541667
0.541667
0.541667
0.541667
0.545833
0.541667
0.541667
0.541667
0.541667
0.541667
0.541667
0.545833
0.545833
0.545833
0.541667
0.545833
0.545833
0.545833
0.545833
0.550000
0.545833
0.541667
0.541667
0.545833
0.541667
0.545833
0.541667
0.541667
0.541667
0.545833
0.541667
0.541667
0.545833
0.545833
0.541667
0.545833
0.537500
0.545833
0.545833
0.545833
0.541667
0.541667
0.541667
0.545833
0.541667
0.541667
0.541667
0.545833
0.541667
0.541667
0.541667
0.545833
0.537500
0.541667
0.537500
0.541667
0.537500
0.541667
0.533333
0.541667
0.541667
0.537500
0.541667
0.537500
0.541667
0.541667
0.537500
0.541667
0.545833
0.541667
0.541667
0.541667
0.541667
0.545833
0.541667
0.541667
0.541667
0.541667
0.541667
0.533333
0.537500
0.541667
0.541667
0.541667
0.541667
0.541667
0.541667
0.545833
0.537500
0.545833
0.545833
0.545833
0.545833
0.545833
0.545833
0.550000
0.550000
0.550000
0.550000
0.554167
0.550000
0.550000
0.550000
0.550000
0.554167
0.554167
0.550000
0.554167
0.558333
0.562500
0.558333
0.562500
0.558333
0.558333
0.562500
0.558333
0.562500
0.562500
0.562500
0.558333
0.558333
1.112500
0.554167
0.554167
0.550000
0.550000
0.550000
0.545833
0.545833
0.541667
0.541667
0.541667
0.541667
0.425000
0.654167
0.541667
1.075000
0.537500
0.529167
0.529167
0.529167
0.529167
0.525000
0.529167
0.525000
0.525000
0.520833
0.525000
0.520833
0.525000
0.525000
0.529167
0.529167
0.529167
0.529167
0.533333
0.529167
0.533333
0.537500
0.533333
0.533333
0.537500
0.537500
0.541667
0.537500
0.541667
0.537500
0.537500
0.541667
0.533333
0.537500
0.541667
0.537500
0.533333
0.537500
0.537500
0.537500
0.541667
0.537500
0.537500
0.537500
0.541667
0.537500
0.537500
0.537500
0.537500
0.541667
0.541667
0.537500
0.537500
0.537500
0.537500
0.541667
0.537500
0.533333
0.537500
0.533333
0.541667
0.537500
0.541667
0.541667
0.545833
0.550000
0.545833
0.550000
0.550000
0.554167
0.545833
0.554167
0.550000
0.550000
0.550000
0.550000
0.545833
0.545833
0.545833
0.545833
0.545833
0.545833
0.541667
0.541667
0.545833
0.541667
0.541667
0.537500
0.545833
0.541667
0.545833
0.541667
0.545833
0.541667
0.537500
0.545833
0.541667
0.541667
0.541667
0.545833
0.545833
0.545833
0.545833
0.545833
0.545833
0.545833
0.545833
0.541667
0.545833
0.545833
0.541667
0.541667
0.541667
0.545833
0.541667
0.541667
0.541667
0.537500
0.541667
0.545833
0.541667
0.537500
0.545833
0.541667
0.545833
0.541667
0.541667
0.550000
0.545833
0.541667
0.545833
0.550000
0.545833
1.087500
0.545833
0.545833
0.545833
0.541667
0.545833
0.541667
0.545833
0.541667
0.537500
0.541667
0.541667
0.545833
0.541667
0.541667
0.541667
0.541667
0.541667
0.541667
0.545833
0.545833
0.541667
0.545833
0.545833
0.545833
0.545833
0.545833
1.087500
0.545833
0.545833
0.541667
0.541667
0.545833
0.541667
0.541667
0.541667
0.545833
0.550000
0.545833
0.545833
0.550000
0.550000
0.550000
0.550000
0.550000
0.554167
0.554167
0.558333
0.554167
0.558333
0.562500
0.558333
0.558333
0.558333
0.562500
0.554167
0.554167
0.558333
0.554167
0.554167
0.554167
0.558333
0.554167
0.362500
0.195833
0.554167
0.550000
0.554167
0.558333
0.554167
0.550000
0.550000
0.554167
0.554167
0.550000
0.550000
0.550000
0.550000
0.550000
0.554167
0.550000
0.545833
0.550000
0.550000
0.545833
0.550000
0.545833
0.545833
0.545833
0.550000
0.545833
0.550000
0.545833
0.545833
0.545833
0.545833
0.545833
0.545833
0.545833
0.541667
0.541667
0.545833
0.545833
0.545833
0.541667
0.545833
0.541667
0.545833
0.545833
0.545833
0.541667
0.550000
0.541667
0.541667
0.541667
0.541667
0.541667
0.541667
0.541667
0.541667
0.537500
0.541667
0.541667
0.541667
0.541667
0.541667
0.537500
0.541667
0.541667
0.541667
0.541667
0.541667
0.541667
0.541667
0.541667
0.545833
0.545833
1.087500
0.545833
0.545833
0.550000
0.545833
0.545833
0.554167
0.550000
0.550000
0.545833
0.550000
0.550000
0.550000
0.545833
0.550000
0.550000
0.545833
0.545833
0.545833
0.545833
0.545833
0.541667
0.550000
0.545833
0.541667
0.550000
0.545833
0.545833
0.545833
0.545833
0.541667
0.541667
0.541667
0.541667
0.537500
0.541667
0.541667
0.537500
0.537500
0.541667
0.541667
0.537500
0.537500
0.541667
0.541667
0.537500
0.541667
0.537500
0.541667
0.541667
0.541667
0.541667
0.541667
0.541667
0.545833
0.541667
0.541667
0.545833
0.545833
0.541667
0.541667
0.545833
0.545833
0.545833
0.545833
0.550000
0.550000
0.545833
0.545833
0.545833
0.545833
0.550000
0.545833
0.550000
0.545833
0.545833
0.554167
0.554167
0.345833
0.708333
0.570833
0.558333
0.562500
0.554167
0.554167
0.558333
0.558333
0.554167
0.554167
0.558333
0.558333
0.554167
0.554167
0.558333
0.558333
0.558333
0.558333
0.554167
0.558333
0.558333
0.558333
0.554167
0.554167
0.558333
0.550000
0.558333
0.554167
0.554167
0.554167
0.554167
0.558333
0.554167
0.558333
0.554167
0.554167
0.558333
0.558333
0.554167
0.558333
0.558333
0.558333
0.554167
0.558333
0.558333
0.554167
0.558333
0.554167
0.558333
0.554167
0.554167
0.550000
0.558333
0.554167
0.550000
0.554167
0.554167
0.558333
0.558333
0.558333
0.562500
0.558333
0.562500
0.562500
0.566667
0.562500
0.558333
0.562500
0.566667
0.562500
0.562500
0.566667
0.562500
0.566667
0.566667
0.575000
0.575000
0.583333
0.575000
0.579167
0.575000
0.570833
0.570833
0.566667
0.566667
0.566667
0.566667
0.562500
0.562500
0.558333
0.558333
0.558333
0.558333
0.554167
0.550000
0.554167
0.554167
0.537500
0.570833
0.550000
0.545833
0.554167
0.550000
0.545833
0.550000
0.545833
0.550000
0.550000
0.554167
0.550000
0.550000
0.550000
0.554167
0.554167
0.550000
0.550000
0.554167
0.554167
0.550000
0.554167
0.558333
0.554167
0.550000
0.554167
0.562500
0.554167
0.558333
0.554167
0.558333
0.554167
0.554167
0.558333
0.554167
0.554167
0.558333
0.558333
0.562500
0.558333
0.558333
0.562500
0.566667
0.566667
0.558333
0.562500
0.566667
0.566667
0.562500
0.562500
0.566667
0.562500
0.562500
0.562500
0.566667
0.562500
0.562500
0.562500
0.566667
0.575000
0.575000
0.575000
0.570833
0.575000
0.570833
0.570833
0.566667
0.570833
0.562500
0.562500
0.558333
0.558333
0.558333
0.558333
0.554167
0.550000
0.550000
0.550000
0.550000
0.545833
0.550000
0.545833
0.541667
0.545833
0.545833
0.545833
0.541667
0.541667
0.541667
0.537500
0.541667
0.541667
0.537500
0.541667
0.541667
0.541667
0.541667
0.541667
0.541667
0.541667
0.541667
0.545833
0.545833
0.545833
0.545833
0.545833
0.550000
0.550000
0.550000
0.550000
