0.400000
0.429167
0.429167
0.400000
0.425000
0.425000
0.400000
0.429167
0.425000
0.400000
0.425000
0.425000
0.404167
0.433333
0.404167
0.425000
0.420833
0.404167
0.416667
0.429167
0.400000
0.429167
0.420833
0.412500
0.420833
0.408333
0.416667
0.420833
0.425000
0.404167
0.429167
0.412500
0.408333
0.433333
0.400000
0.425000
0.425000
0.400000
0.429167
0.425000
0.408333
0.408333
0.429167
0.425000
0.404167
0.433333
0.400000
0.433333
0.408333
0.416667
0.412500
0.429167
0.412500
0.408333
0.420833
0.425000
0.404167
0.433333
0.400000
0.425000
0.408333
0.433333
0.400000
0.433333
0.400000
0.420833
0.420833
0.412500
0.429167
0.404167
0.416667
0.425000
0.400000
0.420833
0.425000
0.404167
0.416667
0.425000
0.400000
0.425000
0.416667
0.404167
0.420833
0.416667
0.408333
0.425000
0.412500
0.412500
0.408333
0.425000
0.404167
0.420833
0.425000
0.400000
0.425000
0.408333
0.425000
0.404167
0.425000
0.404167
0.425000
0.416667
0.404167
0.425000
0.425000
0.400000
0.425000
0.412500
0.420833
0.404167
0.429167
0.408333
0.429167
0.400000
0.420833
0.425000
0.408333
0.429167
0.408333
0.429167
0.400000
0.420833
0.408333
0.433333
0.404167
0.429167
0.408333
0.429167
0.404167
0.425000
0.416667
0.433333
0.400000
0.425000
0.408333
0.429167
0.408333
0.425000
0.404167
0.420833
0.416667
0.412500
0.420833
0.408333
0.429167
0.400000
0.425000
0.412500
0.420833
0.408333
0.429167
0.400000
0.425000
0.408333
0.425000
0.404167
0.420833
0.425000
0.404167
0.420833
0.416667
0.408333
0.416667
0.425000
0.408333
0.416667
0.412500
0.425000
0.425000
0.412500
0.416667
0.408333
0.420833
0.425000
0.408333
0.429167
0.404167
0.425000
0.416667
0.416667
0.429167
0.404167
0.425000
0.420833
0.404167
0.425000
0.416667
0.429167
0.400000
0.425000
0.404167
0.425000
0.412500
0.425000
0.395833
0.420833
0.425000
0.408333
0.433333
0.404167
0.420833
0.404167
0.425000
0.429167
0.404167
0.429167
0.408333
0.425000
0.408333
0.433333
0.404167
0.433333
0.416667
0.429167
0.412500
0.408333
0.429167
0.425000
0.408333
0.429167
0.420833
0.404167
0.429167
0.429167
0.404167
0.425000
0.420833
0.404167
0.425000
0.429167
0.404167
0.420833
0.416667
0.420833
0.400000
0.425000
0.429167
0.400000
0.420833
0.420833
0.408333
0.425000
0.408333
0.425000
0.404167
0.420833
0.412500
0.420833
0.412500
0.416667
0.408333
0.416667
0.420833
0.404167
0.429167
0.400000
0.425000
0.404167
0.433333
0.400000
0.420833
0.408333
0.429167
0.400000
0.429167
0.404167
0.420833
0.408333
0.429167
0.404167
0.433333
0.404167
0.425000
0.425000
0.412500
0.412500
0.433333
0.404167
0.429167
0.412500
0.429167
0.408333
0.412500
0.433333
0.404167
0.429167
0.408333
0.429167
0.391667
0.433333
0.400000
0.425000
0.425000
0.404167
0.429167
0.425000
0.404167
0.425000
0.416667
0.416667
0.420833
0.404167
0.425000
0.416667
0.416667
0.412500
0.420833
0.412500
0.429167
0.412500
0.408333
0.429167
0.420833
0.408333
0.416667
0.420833
0.404167
0.425000
0.408333
0.433333
0.400000
0.425000
0.416667
0.429167
0.412500
0.404167
0.416667
0.425000
0.404167
0.433333
0.404167
0.425000
0.420833
0.404167
0.425000
0.420833
0.404167
0.425000
0.420833
0.400000
0.420833
0.416667
0.412500
0.437500
0.395833
0.420833
0.416667
0.408333
0.429167
0.404167
0.416667
0.425000
0.400000
0.420833
0.429167
0.404167
0.416667
0.420833
0.408333
0.420833
0.408333
0.425000
0.404167
0.420833
0.420833
0.408333
0.437500
0.395833
0.420833
0.420833
0.408333
0.429167
0.404167
0.425000
0.412500
0.429167
0.400000
0.425000
0.416667
0.412500
0.425000
0.404167
0.420833
0.429167
0.404167
0.425000
0.425000
0.404167
0.425000
0.425000
0.404167
0.425000
0.420833
0.404167
0.425000
0.420833
0.408333
0.429167
0.400000
0.425000
0.404167
0.416667
0.420833
0.412500
0.416667
0.404167
0.425000
0.420833
0.400000
0.416667
0.420833
0.395833
0.420833
0.416667
0.416667
0.412500
0.416667
0.404167
0.420833
0.420833
0.404167
0.420833
0.420833
0.400000
0.420833
0.420833
0.412500
0.416667
0.420833
0.404167
0.425000
0.425000
0.408333
0.408333
0.425000
0.395833
0.416667
0.420833
0.412500
0.429167
0.404167
0.425000
0.412500
0.433333
0.400000
0.420833
0.429167
0.412500
0.420833
0.420833
0.404167
0.420833
0.420833
0.416667
0.420833
0.412500
0.416667
0.408333
0.429167
0.416667
0.404167
0.433333
0.404167
0.425000
0.404167
0.429167
0.404167
0.425000
0.408333
0.425000
0.425000
0.404167
0.420833
0.420833
0.400000
0.416667
0.425000
0.404167
0.429167
0.416667
0.429167
0.400000
0.425000
0.408333
0.433333
0.404167
0.425000
0.408333
0.429167
0.412500
0.416667
0.412500
0.425000
0.412500
0.420833
0.408333
0.429167
0.416667
0.425000
0.408333
0.425000
0.408333
0.420833
0.433333
0.400000
0.425000
0.425000
0.404167
0.425000
0.416667
0.412500
0.425000
0.400000
0.412500
0.420833
0.404167
0.420833
0.412500
0.416667
0.416667
0.404167
0.416667
0.425000
0.408333
0.425000
0.404167
0.412500
0.425000
0.408333
0.429167
0.400000
0.416667
0.420833
0.404167
0.416667
0.429167
0.404167
0.416667
0.425000
0.412500
0.429167
0.416667
0.420833
0.412500
0.429167
0.404167
0.425000
0.425000
0.408333
0.425000
0.429167
0.400000
0.429167
0.416667
0.433333
0.404167
0.429167
0.412500
0.433333
0.404167
0.433333
0.412500
0.433333
0.400000
0.420833
0.425000
0.408333
0.429167
0.433333
0.395833
0.420833
0.416667
0.412500
0.441667
0.395833
0.412500
0.420833
0.404167
0.433333
0.400000
0.420833
0.420833
0.404167
0.433333
0.404167
0.429167
0.391667
0.425000
0.362500
0.433333
0.408333
0.416667
0.400000
0.445833
0.429167
0.429167
0.445833
0.425000
0.420833
0.450000
0.454167
0.462500
0.433333
0.454167
0.400000
0.433333
0.408333
0.433333
0.408333
0.429167
0.429167
0.408333
0.425000
0.425000
0.408333
0.429167
0.408333
0.437500
0.412500
0.400000
0.425000
0.429167
0.400000
0.412500
0.425000
0.404167
0.429167
0.395833
0.420833
0.404167
0.420833
0.416667
0.404167
0.429167
0.395833
0.412500
0.416667
0.412500
0.420833
0.400000
0.420833
0.404167
0.420833
0.420833
0.400000
0.416667
0.412500
0.412500
0.416667
0.420833
0.404167
0.412500
0.425000
0.400000
0.420833
0.425000
0.400000
0.420833
0.416667
0.391667
0.400000
0.395833
0.416667
0.450000
0.433333
0.391667
0.425000
0.433333
0.412500
0.404167
0.425000
0.445833
0.420833
0.425000
0.391667
0.412500
0.416667
0.425000
0.420833
0.437500
0.412500
0.437500
0.404167
0.437500
0.408333
0.433333
0.408333
0.429167
0.416667
0.445833
0.404167
0.420833
0.425000
0.404167
0.429167
0.425000
0.395833
0.425000
0.404167
0.429167
0.416667
0.408333
0.429167
0.412500
0.412500
0.412500
0.425000
0.404167
0.425000
0.404167
0.416667
0.425000
0.404167
0.420833
0.412500
0.416667
0.404167
0.420833
0.416667
0.408333
0.420833
0.395833
0.433333
0.400000
0.425000
0.420833
0.412500
0.429167
0.400000
0.425000
0.416667
0.412500
0.420833
0.400000
0.425000
0.408333
0.429167
0.400000
0.420833
0.412500
0.425000
0.395833
0.416667
0.420833
0.404167
0.429167
0.400000
0.420833
0.404167
0.416667
0.420833
0.404167
0.416667
0.416667
0.404167
0.429167
0.412500
0.404167
0.416667
0.416667
0.408333
0.429167
0.404167
0.412500
0.420833
0.404167
0.420833
0.420833
0.404167
0.425000
0.404167
0.429167
0.404167
0.425000
0.404167
0.420833
0.425000
0.400000
0.416667
0.425000
0.404167
0.420833
0.425000
0.404167
0.420833
0.416667
0.404167
0.425000
0.412500
0.416667
0.400000
0.420833
0.412500
0.425000
0.400000
0.420833
0.412500
0.420833
0.400000
0.425000
0.416667
0.420833
0.404167
0.420833
0.420833
0.412500
0.425000
0.404167
0.416667
0.429167
0.400000
0.420833
0.416667
0.412500
0.425000
0.420833
0.400000
0.420833
0.408333
0.433333
0.404167
0.408333
0.425000
0.400000
0.429167
0.400000
0.420833
0.425000
0.400000
0.429167
0.408333
0.429167
0.400000
0.420833
0.412500
0.416667
0.420833
0.408333
0.425000
0.400000
0.416667
0.420833
0.408333
0.429167
0.395833
0.425000
0.412500
0.412500
0.420833
0.404167
0.420833
0.420833
0.408333
0.416667
0.429167
0.400000
0.425000
0.416667
0.416667
0.433333
0.404167
0.420833
0.420833
0.408333
0.425000
0.425000
0.404167
0.420833
0.416667
0.412500
0.429167
0.400000
0.420833
0.420833
0.408333
0.425000
0.391667
0.470833
0.391667
0.404167
0.412500
0.404167
0.420833
0.425000
0.404167
0.425000
0.408333
0.429167
0.404167
0.425000
0.416667
0.408333
0.425000
0.408333
0.429167
0.404167
0.425000
0.416667
0.416667
0.412500
0.425000
0.412500
0.412500
0.429167
0.400000
0.425000
0.416667
0.420833
0.412500
0.412500
0.420833
0.400000
0.420833
0.420833
0.404167
0.420833
0.412500
0.416667
0.408333
0.420833
0.404167
0.416667
0.412500
0.416667
0.416667
0.400000
0.412500
0.416667
0.412500
0.416667
0.395833
0.412500
0.416667
0.404167
0.425000
0.412500
0.404167
0.420833
0.412500
0.416667
0.412500
0.420833
0.416667
0.408333
0.425000
0.412500
0.412500
0.425000
0.408333
0.425000
0.404167
0.420833
0.420833
0.404167
0.425000
0.404167
0.429167
0.400000
0.420833
0.416667
0.420833
0.404167
0.408333
0.425000
0.408333
0.416667
0.425000
0.400000
0.420833
0.420833
0.404167
0.420833
0.416667
0.408333
0.425000
0.400000
0.420833
0.408333
0.420833
0.404167
0.416667
0.416667
0.412500
0.420833
0.404167
0.412500
0.425000
0.404167
0.416667
0.420833
0.404167
0.420833
0.412500
0.408333
0.420833
0.420833
0.400000
0.416667
0.420833
0.404167
0.416667
0.420833
0.408333
0.425000
0.404167
0.420833
0.412500
0.408333
0.420833
0.416667
0.412500
0.429167
0.408333
0.425000
0.400000
0.420833
0.416667
0.412500
0.429167
0.408333
0.420833
0.416667
0.408333
0.420833
0.416667
0.404167
0.412500
0.420833
0.412500
0.420833
0.404167
0.416667
0.420833
0.408333
0.420833
0.404167
0.420833
0.404167
0.412500
0.425000
0.404167
0.416667
0.408333
0.420833
0.408333
0.425000
0.404167
0.412500
0.416667
0.404167
0.416667
0.420833
0.404167
0.416667
0.416667
0.408333
0.416667
0.420833
0.408333
0.420833
0.408333
0.416667
0.408333
0.420833
0.420833
0.408333
0.416667
0.420833
0.408333
0.429167
0.400000
0.420833
0.416667
0.408333
0.416667
0.400000
0.404167
0.429167
0.400000
0.425000
0.404167
0.420833
0.420833
0.412500
0.433333
0.412500
0.420833
0.408333
0.416667
0.420833
0.408333
0.416667
0.425000
0.404167
0.425000
0.425000
0.404167
0.420833
0.420833
0.404167
0.429167
0.416667
0.420833
0.404167
0.420833
0.408333
0.420833
0.425000
0.404167
0.420833
0.412500
0.412500
0.429167
0.400000
0.420833
0.416667
0.408333
0.425000
0.404167
0.420833
0.408333
0.420833
0.404167
0.416667
0.420833
0.408333
0.429167
0.404167
0.416667
0.412500
0.408333
0.425000
0.408333
0.420833
0.420833
0.404167
0.420833
0.420833
0.408333
0.429167
0.404167
0.420833
0.416667
0.412500
0.425000
0.404167
0.429167
0.404167
0.420833
0.420833
0.408333
0.416667
0.425000
0.404167
0.425000
0.404167
0.420833
0.416667
0.412500
0.412500
0.416667
0.416667
0.408333
0.425000
0.408333
0.412500
0.425000
0.404167
0.425000
0.408333
0.425000
0.404167
0.420833
0.412500
0.429167
0.400000
0.416667
0.420833
0.404167
0.416667
0.420833
0.404167
0.425000
0.412500
0.404167
0.416667
0.412500
0.408333
0.416667
0.408333
0.429167
0.395833
0.416667
0.412500
0.400000
0.416667
0.420833
0.404167
0.416667
0.416667
0.408333
0.420833
0.404167
0.408333
0.420833
0.404167
0.416667
0.420833
0.408333
0.429167
0.400000
0.416667
0.416667
0.408333
0.429167
0.404167
0.420833
0.420833
0.404167
0.412500
0.416667
0.408333
0.420833
0.416667
0.408333
0.408333
0.429167
0.404167
0.420833
0.420833
0.408333
0.420833
0.412500
0.412500
0.425000
0.404167
0.425000
0.416667
0.412500
0.429167
0.404167
0.425000
0.408333
0.429167
0.404167
0.412500
0.429167
0.408333
0.420833
0.416667
0.404167
0.416667
0.433333
0.404167
0.420833
0.404167
0.479167
0.841667
0.391667
0.408333
0.404167
0.408333
0.412500
0.416667
0.416667
0.412500
0.429167
0.408333
0.420833
0.416667
0.416667
0.416667
0.425000
0.412500
0.408333
0.416667
0.420833
0.408333
0.420833
0.420833
0.404167
0.420833
0.416667
0.404167
0.416667
0.420833
0.408333
0.416667
0.416667
0.408333
0.412500
0.420833
0.408333
0.429167
0.404167
0.416667
0.416667
0.408333
0.420833
0.408333
0.420833
0.408333
0.416667
0.420833
0.408333
0.420833
0.416667
0.408333
0.416667
0.416667
0.408333
0.420833
0.404167
0.420833
0.412500
0.412500
0.420833
0.408333
0.420833
0.408333
0.416667
0.404167
0.408333
0.420833
0.404167
0.425000
0.404167
0.420833
0.416667
0.412500
0.416667
0.408333
0.420833
0.420833
0.404167
0.420833
0.420833
0.404167
0.416667
0.420833
0.416667
0.416667
0.400000
0.404167
0.445833
0.400000
0.429167
0.425000
0.400000
0.412500
0.404167
0.412500
0.400000
0.412500
0.420833
0.408333
0.416667
0.420833
0.408333
0.404167
0.408333
0.429167
0.404167
0.425000
0.408333
0.425000
0.404167
0.412500
0.425000
0.395833
0.470833
0.416667
0.404167
0.412500
0.404167
0.408333
0.404167
0.412500
0.420833
0.408333
0.425000
0.412500
0.412500
0.416667
0.429167
0.404167
0.420833
0.420833
0.404167
0.429167
0.408333
0.425000
0.404167
0.412500
0.425000
0.404167
0.420833
0.416667
0.408333
0.420833
0.820833
0.416667
0.408333
0.416667
0.416667
0.412500
0.412500
0.412500
0.412500
0.420833
0.400000
0.412500
0.416667
0.404167
0.416667
0.420833
0.408333
0.425000
0.404167
0.412500
0.416667
0.404167
0.420833
0.416667
0.408333
0.420833
0.408333
0.416667
0.404167
0.412500
0.420833
0.408333
0.416667
0.412500
0.408333
0.412500
0.420833
0.408333
0.408333
0.420833
0.404167
0.416667
0.408333
0.420833
0.404167
0.416667
0.416667
0.412500
0.412500
0.412500
0.408333
0.416667
0.412500
0.412500
0.408333
0.420833
0.400000
0.412500
0.425000
0.404167
0.412500
0.416667
0.408333
0.412500
0.420833
0.408333
0.429167
0.404167
0.412500
0.416667
0.408333
0.412500
0.429167
0.404167
0.416667
0.416667
0.404167
0.425000
0.408333
0.420833
0.412500
0.420833
0.416667
0.404167
0.416667
0.416667
0.412500
0.420833
0.404167
0.416667
0.412500
0.412500
0.408333
0.429167
0.400000
0.479167
0.350000
0.483333
0.412500
