0.537500
0.533333
0.537500
0.537500
0.533333
0.533333
0.541667
0.537500
0.533333
0.525000
0.537500
0.541667
0.529167
0.550000
0.525000
0.533333
0.537500
0.533333
0.295833
0.354167
0.425000
0.541667
0.537500
0.533333
0.320833
0.200000
0.541667
0.529167
0.533333
0.516667
0.533333
0.533333
0.533333
0.533333
0.533333
0.525000
0.366667
0.691667
0.533333
0.529167
0.537500
0.529167
0.533333
0.525000
0.533333
0.529167
0.533333
0.533333
0.529167
0.520833
0.541667
1.162500
0.425000
0.533333
0.533333
0.533333
0.637500
0.420833
0.537500
0.633333
0.420833
0.537500
0.533333
0.525000
0.529167
0.533333
0.533333
0.533333
0.529167
0.525000
0.537500
0.525000
0.537500
0.529167
0.533333
0.533333
0.529167
0.541667
0.529167
0.533333
0.537500
0.533333
0.537500
0.533333
0.537500
0.533333
0.537500
0.533333
0.537500
0.533333
0.533333
0.537500
0.537500
0.529167
0.541667
0.533333
0.537500
0.537500
0.529167
0.541667
0.533333
0.541667
0.541667
0.537500
0.541667
0.512500
0.558333
0.645833
0.520833
0.433333
0.545833
0.616667
0.450000
0.533333
0.529167
0.533333
0.529167
0.529167
0.537500
0.525000
0.533333
0.533333
0.525000
0.533333
0.525000
0.525000
0.533333
0.533333
0.529167
0.533333
0.525000
0.529167
0.537500
0.525000
0.529167
0.533333
0.529167
0.533333
0.525000
0.533333
0.525000
0.533333
0.529167
0.516667
0.533333
0.529167
0.525000
0.533333
0.529167
0.533333
0.529167
0.520833
0.529167
0.525000
0.525000
0.533333
0.520833
0.529167
0.525000
0.520833
0.529167
0.520833
0.525000
0.525000
0.525000
0.520833
0.525000
0.279167
0.229167
0.541667
0.525000
0.520833
0.316667
0.733333
0.520833
0.520833
0.612500
0.425000
0.520833
0.612500
0.420833
0.295833
0.225000
0.516667
0.620833
0.420833
0.520833
0.516667
0.516667
0.516667
0.520833
0.508333
0.525000
0.629167
0.416667
0.525000
0.308333
0.720833
0.529167
0.516667
0.508333
0.520833
0.604167
0.425000
0.516667
0.516667
0.529167
0.504167
0.520833
0.516667
0.520833
0.516667
0.525000
0.520833
0.525000
0.525000
0.520833
0.529167
0.516667
0.525000
0.529167
0.525000
0.520833
0.533333
0.525000
0.525000
0.525000
0.529167
0.529167
0.529167
0.525000
0.529167
0.525000
0.537500
0.525000
0.533333
0.537500
0.525000
0.533333
0.541667
0.533333
0.533333
0.537500
0.529167
0.541667
0.533333
0.537500
0.541667
0.533333
0.533333
0.541667
0.537500
0.541667
0.537500
0.537500
0.541667
0.537500
0.541667
0.537500
0.541667
0.545833
0.533333
0.545833
0.645833
0.441667
0.537500
0.545833
0.545833
0.537500
0.545833
0.541667
0.541667
0.541667
0.545833
0.541667
0.550000
0.533333
0.550000
0.541667
0.541667
0.550000
0.541667
0.550000
0.545833
0.541667
0.554167
0.541667
0.550000
0.550000
0.537500
0.554167
0.545833
0.545833
0.541667
0.541667
0.545833
0.537500
0.545833
0.537500
0.550000
0.537500
0.533333
0.545833
0.537500
0.529167
0.545833
0.537500
0.533333
0.545833
1.054167
0.533333
0.533333
0.533333
0.529167
0.533333
0.637500
0.533333
0.433333
0.529167
0.529167
0.520833
0.541667
0.537500
0.525000
0.525000
0.537500
0.529167
0.525000
0.537500
0.533333
0.529167
0.520833
0.537500
0.525000
0.533333
0.529167
0.529167
0.533333
0.529167
0.529167
0.529167
0.537500
0.533333
0.541667
0.533333
0.545833
0.537500
0.537500
0.541667
0.541667
0.537500
0.541667
0.541667
0.537500
0.545833
0.537500
0.545833
0.537500
0.537500
0.541667
0.550000
0.537500
0.550000
0.537500
0.545833
0.550000
0.541667
0.550000
0.545833
0.558333
0.545833
0.550000
0.545833
0.554167
0.545833
0.554167
0.541667
0.545833
0.558333
0.541667
0.550000
0.545833
0.554167
0.533333
0.554167
0.545833
0.541667
0.541667
0.550000
0.541667
0.550000
0.537500
0.550000
0.537500
0.541667
0.545833
0.545833
0.537500
0.550000
0.541667
0.537500
0.545833
0.533333
0.545833
0.541667
0.541667
0.541667
0.537500
0.545833
0.545833
0.533333
0.545833
0.270833
0.275000
0.533333
0.537500
0.491667
0.583333
0.533333
0.541667
0.533333
0.541667
0.533333
0.537500
0.537500
0.533333
0.537500
0.641667
0.433333
0.533333
0.537500
0.533333
0.629167
0.441667
0.537500
0.541667
0.533333
0.541667
0.537500
0.537500
0.545833
0.529167
0.545833
0.541667
0.533333
0.541667
0.545833
0.541667
0.537500
0.541667
0.541667
0.537500
0.545833
0.537500
0.541667
0.345833
0.200000
0.537500
0.537500
0.537500
0.541667
0.541667
0.537500
0.537500
0.533333
0.541667
0.533333
0.541667
0.529167
0.541667
0.533333
0.537500
0.529167
0.541667
0.537500
0.537500
0.508333
0.545833
0.537500
0.541667
0.541667
0.537500
0.533333
0.537500
0.533333
0.533333
0.537500
0.529167
0.541667
0.533333
0.545833
0.533333
0.541667
0.541667
0.537500
0.545833
0.545833
0.533333
0.545833
0.550000
0.633333
0.462500
0.545833
0.537500
0.533333
0.533333
0.545833
0.537500
0.541667
0.537500
0.537500
0.525000
0.545833
0.525000
0.537500
0.533333
0.537500
0.541667
0.512500
0.558333
0.541667
0.104167
0.429167
0.308333
0.233333
0.537500
0.545833
0.529167
0.266667
0.279167
0.541667
0.533333
0.541667
0.537500
0.525000
0.541667
0.533333
0.541667
0.537500
0.533333
0.541667
0.529167
0.545833
0.525000
0.541667
0.533333
0.537500
0.533333
0.537500
0.541667
0.529167
0.541667
0.529167
0.537500
0.533333
0.541667
0.529167
0.541667
0.529167
0.537500
0.533333
0.537500
0.537500
0.529167
0.541667
0.533333
0.541667
0.529167
0.537500
0.541667
0.529167
0.541667
0.537500
0.533333
0.537500
0.537500
0.533333
0.545833
0.529167
0.537500
0.545833
0.525000
0.550000
0.525000
0.541667
0.537500
0.537500
0.529167
1.075000
0.529167
0.520833
0.537500
0.537500
0.525000
0.537500
0.541667
0.533333
0.533333
0.541667
0.550000
0.541667
0.550000
0.537500
0.545833
0.541667
0.650000
0.445833
0.533333
0.558333
0.541667
0.545833
0.550000
0.554167
0.541667
0.554167
0.554167
0.545833
0.554167
0.550000
0.554167
0.554167
0.554167
0.554167
0.545833
0.562500
0.545833
0.558333
0.550000
0.550000
0.550000
0.558333
0.541667
0.558333
0.550000
0.550000
0.558333
0.541667
0.554167
0.541667
0.554167
0.554167
0.550000
0.541667
0.558333
0.541667
0.554167
0.545833
0.554167
0.541667
0.554167
0.554167
0.541667
0.550000
0.550000
0.541667
0.562500
0.545833
0.545833
0.550000
0.562500
0.541667
0.558333
0.541667
0.550000
0.558333
0.541667
0.554167
0.541667
0.554167
0.545833
0.554167
0.545833
0.658333
0.445833
0.550000
0.558333
0.541667
0.554167
0.541667
0.545833
0.558333
0.545833
0.541667
0.550000
0.279167
0.816667
0.545833
0.545833
0.541667
0.545833
0.541667
0.533333
0.554167
0.645833
0.429167
0.550000
0.529167
0.558333
0.533333
0.545833
0.525000
0.545833
0.525000
0.541667
0.533333
0.537500
0.537500
0.541667
0.533333
0.537500
0.541667
0.541667
0.545833
0.545833
0.545833
0.525000
0.545833
0.545833
0.550000
0.554167
0.516667
0.566667
0.508333
0.562500
0.554167
0.533333
0.545833
0.537500
0.554167
0.554167
0.537500
0.537500
1.104167
0.545833
0.554167
0.545833
0.558333
0.545833
0.537500
0.550000
0.550000
0.554167
0.541667
0.554167
0.541667
0.554167
0.550000
0.541667
0.554167
0.541667
0.554167
0.541667
0.550000
0.541667
0.550000
0.545833
0.545833
0.545833
0.550000
0.537500
0.537500
0.554167
0.537500
0.537500
0.545833
0.554167
0.545833
0.533333
0.554167
0.545833
0.533333
0.541667
0.533333
0.554167
0.541667
0.533333
0.541667
0.529167
0.541667
0.529167
0.541667
0.537500
0.541667
0.533333
0.541667
0.533333
0.541667
0.537500
0.533333
0.537500
0.533333
0.541667
0.533333
0.541667
0.529167
0.541667
0.312500
0.225000
0.545833
0.537500
0.537500
0.541667
0.533333
0.545833
0.533333
0.541667
0.545833
0.537500
0.537500
0.545833
0.541667
0.541667
0.541667
0.537500
0.545833
0.537500
0.541667
0.545833
0.537500
0.545833
0.533333
0.554167
0.529167
0.550000
0.529167
0.545833
0.541667
0.545833
0.533333
0.550000
0.533333
0.541667
0.541667
0.541667
0.541667
0.533333
0.545833
0.537500
0.537500
0.541667
0.541667
0.541667
0.533333
0.541667
0.541667
0.537500
0.550000
0.533333
0.545833
0.537500
0.541667
0.545833
0.545833
0.516667
0.558333
0.650000
0.404167
0.554167
0.550000
0.529167
0.545833
0.537500
0.525000
0.541667
0.529167
0.537500
0.533333
0.541667
0.533333
0.537500
0.545833
0.541667
0.537500
0.541667
0.545833
0.537500
0.545833
0.545833
0.537500
0.545833
0.545833
0.541667
0.550000
0.550000
0.545833
0.545833
0.550000
0.550000
0.545833
0.550000
0.541667
0.550000
0.650000
0.441667
0.545833
0.541667
0.545833
0.554167
0.537500
0.545833
0.550000
0.545833
0.545833
0.541667
0.545833
0.545833
0.550000
0.541667
0.541667
0.545833
0.545833
0.545833
0.541667
0.554167
0.545833
0.550000
0.533333
0.545833
0.541667
0.550000
0.550000
0.554167
0.550000
0.550000
0.537500
0.554167
0.550000
0.558333
0.545833
0.554167
0.545833
0.554167
0.558333
0.545833
0.554167
0.545833
0.558333
0.554167
0.541667
0.554167
0.550000
0.550000
0.554167
0.541667
0.554167
0.545833
0.550000
0.558333
0.537500
0.558333
0.550000
0.545833
0.554167
0.554167
0.545833
0.550000
0.541667
0.541667
0.550000
0.541667
0.541667
0.545833
0.533333
0.541667
0.545833
0.541667
0.537500
0.529167
0.545833
0.558333
0.533333
0.550000
0.533333
0.554167
0.537500
0.545833
0.537500
0.550000
0.537500
0.545833
0.550000
0.541667
0.537500
0.554167
0.125000
0.408333
0.541667
0.541667
1.083333
0.545833
0.537500
0.541667
0.545833
0.533333
0.550000
0.533333
0.545833
0.545833
0.541667
0.545833
0.545833
0.545833
0.550000
0.541667
0.550000
0.537500
0.550000
0.550000
0.537500
0.550000
0.541667
0.537500
0.266667
0.275000
0.533333
0.654167
0.429167
0.533333
0.541667
0.529167
0.545833
0.533333
0.541667
0.537500
0.537500
0.533333
0.545833
0.533333
0.537500
0.541667
0.537500
0.545833
0.533333
0.541667
0.541667
0.541667
0.541667
0.533333
0.545833
0.537500
0.537500
0.545833
0.533333
0.545833
0.541667
0.537500
0.541667
0.541667
0.533333
0.545833
0.541667
0.533333
0.537500
0.550000
0.533333
0.529167
0.550000
0.533333
0.545833
0.541667
0.533333
0.541667
0.545833
0.537500
0.550000
0.533333
0.545833
0.554167
0.533333
0.541667
0.550000
0.545833
0.533333
0.554167
0.550000
0.541667
0.537500
0.533333
0.545833
0.537500
0.545833
0.537500
0.541667
0.537500
0.541667
0.533333
0.550000
0.545833
0.537500
0.554167
0.533333
0.550000
0.537500
0.545833
0.550000
0.541667
0.550000
0.541667
0.550000
0.550000
0.545833
0.550000
0.550000
0.545833
0.558333
0.541667
0.558333
0.275000
0.820833
0.554167
0.541667
0.550000
0.545833
0.550000
0.541667
0.545833
0.545833
0.545833
0.550000
0.537500
0.541667
0.545833
0.537500
0.545833
0.541667
0.537500
0.554167
0.529167
0.541667
0.550000
0.533333
0.550000
0.537500
0.533333
0.545833
0.541667
0.537500
0.545833
0.550000
0.537500
0.545833
0.558333
0.533333
0.541667
0.554167
0.541667
0.545833
0.554167
0.533333
0.554167
0.550000
0.545833
0.545833
0.554167
0.470833
0.625000
0.545833
0.258333
0.287500
0.550000
0.550000
0.545833
0.554167
0.541667
