0.516667
0.520833
0.508333
0.512500
0.525000
0.512500
0.520833
0.516667
0.520833
0.516667
0.516667
0.520833
0.516667
0.520833
0.512500
0.520833
0.520833
0.516667
0.520833
0.516667
0.520833
0.516667
0.525000
0.512500
0.520833
0.520833
0.520833
0.525000
0.516667
0.520833
0.520833
0.520833
0.525000
0.516667
0.520833
0.525000
0.516667
0.525000
0.520833
0.520833
0.525000
0.520833
0.520833
0.516667
0.520833
0.529167
0.516667
0.520833
0.516667
0.520833
0.525000
0.520833
0.525000
0.516667
0.520833
0.525000
0.512500
0.525000
0.525000
0.516667
0.525000
0.525000
0.516667
0.525000
0.512500
0.525000
0.520833
0.520833
0.520833
0.520833
0.516667
0.525000
0.512500
0.516667
0.529167
0.516667
0.516667
0.525000
0.529167
0.500000
0.520833
0.533333
0.508333
0.529167
0.512500
0.516667
0.520833
0.520833
0.520833
0.520833
0.516667
0.520833
0.520833
0.516667
0.520833
0.516667
0.520833
0.516667
0.516667
0.525000
0.512500
0.516667
0.512500
0.525000
0.508333
0.525000
0.512500
0.520833
0.512500
0.520833
0.512500
0.520833
0.520833
0.512500
0.520833
0.516667
0.516667
0.516667
0.520833
0.512500
0.525000
0.516667
0.516667
0.529167
0.004167
1.025000
0.516667
0.520833
0.516667
0.525000
0.516667
0.520833
0.520833
0.520833
0.516667
0.525000
0.516667
0.520833
0.516667
0.516667
0.525000
0.520833
0.525000
0.520833
0.520833
0.529167
0.516667
0.525000
0.516667
0.520833
0.520833
0.529167
0.525000
0.529167
0.520833
0.525000
0.525000
0.525000
0.525000
0.520833
0.533333
0.520833
0.520833
0.529167
0.520833
0.520833
0.529167
0.516667
0.529167
0.520833
0.504167
0.545833
0.516667
0.529167
0.520833
0.525000
0.525000
0.520833
0.533333
0.520833
0.525000
0.525000
0.520833
0.533333
0.516667
0.529167
0.525000
0.520833
0.529167
0.520833
0.529167
0.520833
0.529167
0.525000
0.520833
0.525000
0.529167
0.520833
0.525000
0.520833
0.525000
0.529167
0.520833
0.529167
0.516667
0.525000
0.520833
0.525000
0.525000
0.516667
0.529167
0.520833
0.520833
0.525000
0.520833
0.525000
0.529167
0.525000
0.525000
0.520833
0.533333
0.520833
0.525000
0.529167
0.525000
0.525000
0.520833
0.533333
0.525000
0.520833
0.520833
0.529167
0.525000
0.525000
0.533333
0.516667
0.529167
0.520833
0.529167
0.525000
0.525000
0.520833
0.533333
0.520833
0.525000
0.529167
0.520833
0.529167
0.525000
0.525000
0.533333
0.520833
0.529167
0.533333
0.520833
0.533333
0.525000
0.529167
0.533333
0.525000
0.533333
0.520833
0.529167
0.529167
0.520833
0.533333
0.516667
0.529167
0.529167
0.516667
0.529167
0.516667
0.529167
0.520833
0.525000
0.516667
0.520833
0.525000
0.516667
0.525000
0.520833
0.520833
0.529167
0.516667
0.529167
0.529167
0.525000
0.533333
0.525000
0.529167
0.533333
0.525000
0.537500
0.529167
0.529167
0.537500
0.529167
0.529167
0.541667
0.529167
0.537500
0.537500
0.529167
0.537500
0.537500
0.529167
0.541667
0.529167
0.541667
0.537500
0.529167
0.541667
0.533333
0.533333
0.541667
0.529167
0.533333
0.545833
0.525000
0.533333
0.533333
0.533333
0.537500
0.525000
0.533333
0.533333
0.525000
0.537500
0.529167
0.525000
0.537500
0.529167
0.525000
0.533333
0.537500
0.525000
0.529167
0.533333
0.525000
0.525000
0.537500
0.520833
0.529167
0.529167
0.525000
0.533333
0.525000
0.533333
0.525000
0.525000
0.529167
0.520833
0.525000
0.529167
0.520833
0.525000
0.529167
0.520833
0.425000
0.625000
0.529167
0.537500
0.525000
0.525000
0.525000
0.525000
0.529167
0.525000
0.525000
0.525000
0.529167
0.525000
0.525000
0.537500
0.525000
0.529167
0.533333
0.525000
0.537500
0.529167
0.529167
0.537500
0.537500
0.529167
0.529167
0.541667
0.537500
0.533333
0.541667
0.537500
0.533333
0.545833
0.537500
0.537500
0.545833
0.533333
0.545833
0.533333
0.537500
0.545833
0.533333
0.545833
0.537500
0.533333
0.545833
0.541667
0.533333
0.541667
0.541667
0.537500
0.537500
0.541667
0.537500
0.537500
0.537500
0.533333
0.537500
0.529167
0.533333
0.537500
0.533333
0.529167
0.633333
0.420833
0.512500
0.525000
0.516667
0.516667
0.525000
0.520833
0.516667
0.525000
0.520833
0.520833
0.520833
0.520833
0.525000
0.520833
0.520833
0.525000
0.525000
0.529167
0.520833
0.533333
0.520833
0.533333
0.520833
0.529167
0.533333
0.525000
0.529167
0.525000
0.529167
0.533333
0.525000
0.529167
0.533333
0.533333
0.529167
0.533333
0.537500
0.525000
0.533333
0.537500
0.529167
0.533333
0.537500
0.529167
0.541667
0.533333
0.541667
0.529167
0.545833
0.529167
0.537500
0.537500
0.533333
0.541667
0.537500
0.545833
0.533333
0.541667
0.533333
0.541667
0.541667
0.537500
0.533333
0.545833
0.537500
0.537500
0.533333
0.541667
0.533333
0.537500
0.529167
0.533333
0.537500
0.533333
0.533333
0.533333
0.529167
0.537500
0.533333
0.525000
0.537500
0.525000
0.533333
0.529167
0.533333
0.525000
0.529167
0.529167
0.533333
0.625000
0.441667
0.275000
0.775000
0.537500
0.529167
0.533333
0.529167
0.533333
0.529167
0.537500
0.633333
0.420833
0.529167
0.529167
0.529167
0.529167
0.533333
0.529167
0.529167
0.533333
0.529167
0.529167
0.533333
0.533333
0.529167
0.529167
0.537500
0.529167
0.533333
0.529167
0.533333
0.529167
0.529167
0.533333
0.529167
0.533333
0.533333
0.529167
0.533333
0.533333
0.533333
0.529167
0.537500
0.533333
0.529167
0.533333
0.541667
0.537500
0.537500
0.537500
0.541667
0.533333
0.545833
0.537500
0.537500
0.541667
0.537500
0.533333
0.529167
0.541667
0.529167
0.529167
0.537500
0.529167
0.533333
0.533333
0.537500
0.537500
0.537500
0.533333
0.537500
0.541667
0.250000
0.283333
0.537500
0.541667
0.533333
0.537500
0.541667
0.537500
0.537500
0.541667
0.533333
0.533333
0.537500
0.537500
0.537500
0.391667
0.154167
0.541667
0.533333
0.545833
0.533333
0.545833
0.529167
0.545833
0.545833
0.533333
0.537500
0.537500
0.541667
0.529167
0.537500
0.533333
0.529167
0.537500
0.541667
0.533333
0.550000
0.537500
0.533333
0.550000
0.533333
0.550000
0.533333
0.545833
0.541667
0.541667
0.550000
0.541667
0.541667
0.545833
0.541667
0.541667
0.545833
0.541667
0.541667
0.541667
0.545833
0.545833
0.533333
0.545833
0.533333
0.537500
0.537500
0.533333
0.529167
0.541667
0.529167
0.529167
0.537500
0.525000
0.533333
0.537500
0.529167
0.533333
0.537500
0.529167
0.533333
0.537500
0.529167
0.533333
0.533333
0.533333
0.537500
0.529167
0.533333
0.533333
0.537500
0.529167
0.541667
0.529167
0.545833
0.533333
0.550000
0.529167
0.550000
0.533333
0.545833
0.537500
0.537500
0.550000
0.541667
0.537500
0.550000
0.537500
0.545833
0.541667
0.537500
0.550000
0.541667
0.541667
0.550000
0.533333
0.541667
0.550000
0.533333
0.550000
0.541667
0.537500
0.545833
0.533333
0.550000
0.533333
0.545833
0.541667
0.537500
0.541667
0.541667
0.537500
0.545833
0.529167
0.541667
0.533333
0.537500
0.541667
0.529167
0.533333
0.541667
0.533333
0.541667
0.533333
0.541667
0.541667
0.529167
0.541667
0.537500
0.533333
0.545833
0.537500
0.541667
0.550000
0.541667
0.541667
0.545833
0.533333
0.533333
0.545833
0.533333
0.541667
0.533333
0.541667
0.533333
0.541667
0.541667
0.537500
0.545833
0.541667
0.537500
0.550000
0.533333
0.545833
0.541667
0.837500
0.541667
0.537500
0.545833
0.541667
0.537500
0.550000
0.533333
0.545833
0.537500
0.537500
0.541667
0.541667
0.537500
0.545833
0.533333
0.545833
0.537500
0.541667
0.537500
0.545833
0.537500
0.545833
0.537500
0.541667
0.545833
0.541667
0.541667
0.550000
0.541667
0.554167
0.541667
0.545833
0.658333
0.445833
0.537500
0.550000
0.537500
0.554167
0.283333
0.258333
0.533333
0.537500
0.533333
0.537500
0.529167
0.533333
0.541667
0.529167
0.537500
0.537500
0.541667
0.541667
0.533333
0.545833
0.537500
0.541667
0.545833
0.541667
0.541667
0.541667
0.541667
0.541667
0.545833
0.541667
0.541667
0.550000
0.541667
0.541667
0.550000
0.541667
0.545833
0.545833
0.541667
0.545833
0.537500
0.537500
0.533333
0.537500
0.541667
0.533333
0.541667
0.537500
0.541667
0.533333
0.537500
0.541667
0.545833
0.533333
0.541667
0.533333
0.541667
0.433333
0.637500
0.550000
0.541667
0.541667
0.537500
0.541667
0.537500
0.545833
0.537500
0.537500
0.541667
0.537500
0.537500
0.537500
0.537500
0.541667
0.529167
0.537500
0.537500
0.537500
0.537500
0.537500
0.533333
0.537500
0.541667
0.533333
0.545833
0.429167
0.641667
0.545833
0.545833
0.541667
0.545833
0.541667
0.545833
0.545833
0.545833
0.541667
0.550000
0.537500
0.545833
0.545833
0.541667
0.541667
0.541667
0.541667
0.541667
0.550000
0.537500
0.537500
0.545833
0.537500
0.541667
0.541667
0.545833
0.541667
0.550000
0.545833
0.550000
0.541667
0.545833
0.558333
0.537500
0.545833
0.545833
0.541667
0.545833
0.550000
0.541667
0.545833
0.541667
0.545833
0.541667
0.545833
0.541667
0.545833
0.541667
0.541667
0.550000
0.541667
0.550000
0.545833
0.541667
0.541667
0.550000
0.541667
0.541667
0.541667
0.537500
0.541667
0.537500
0.537500
0.541667
0.533333
0.537500
0.537500
0.533333
0.541667
0.533333
0.516667
0.554167
0.537500
0.529167
0.537500
0.525000
0.529167
0.533333
0.525000
0.529167
0.525000
0.533333
0.525000
0.533333
0.525000
0.533333
0.529167
0.533333
0.537500
0.529167
0.533333
0.537500
0.533333
0.529167
0.541667
0.529167
0.537500
0.541667
0.537500
0.533333
0.537500
0.541667
0.537500
0.541667
0.541667
0.537500
0.545833
0.541667
0.537500
0.541667
0.541667
0.533333
0.533333
0.541667
0.533333
0.541667
0.529167
0.533333
0.537500
0.537500
0.529167
0.537500
0.533333
0.533333
0.537500
0.533333
0.529167
0.533333
0.541667
0.529167
0.541667
0.537500
0.533333
0.541667
0.533333
0.541667
0.541667
0.541667
0.537500
0.545833
0.537500
0.545833
0.545833
0.537500
0.550000
0.545833
0.541667
0.550000
0.541667
0.545833
0.554167
0.545833
0.545833
0.554167
0.550000
0.545833
0.558333
0.541667
0.550000
0.554167
0.545833
0.558333
0.545833
0.554167
0.554167
0.550000
0.550000
0.558333
0.545833
0.558333
0.541667
0.554167
0.550000
0.558333
0.645833
0.441667
0.550000
0.550000
0.537500
0.554167
0.537500
0.545833
0.545833
0.533333
0.545833
0.537500
0.537500
0.545833
0.529167
0.550000
0.529167
0.537500
0.529167
0.545833
0.537500
0.537500
0.537500
0.541667
0.533333
0.537500
0.520833
0.554167
0.537500
0.529167
0.550000
0.533333
0.541667
0.529167
0.537500
0.541667
0.529167
0.541667
0.533333
0.541667
0.541667
0.533333
0.529167
0.533333
0.533333
0.529167
0.537500
0.533333
0.529167
0.537500
0.529167
0.525000
0.537500
0.533333
0.529167
0.533333
0.525000
0.541667
0.525000
0.529167
0.537500
0.533333
0.525000
0.541667
0.541667
0.533333
0.541667
0.533333
0.541667
0.529167
0.550000
0.529167
0.537500
0.533333
0.541667
0.525000
0.545833
0.537500
0.541667
0.525000
0.541667
0.550000
0.533333
0.545833
0.537500
0.541667
0.550000
0.541667
0.550000
0.545833
0.550000
0.550000
0.545833
0.554167
0.545833
0.554167
0.550000
0.550000
0.545833
0.554167
0.550000
0.550000
0.554167
0.550000
0.554167
0.554167
0.554167
0.554167
0.641667
0.466667
0.558333
0.550000
0.558333
0.554167
0.554167
0.554167
0.554167
0.554167
0.550000
