0.541667
0.537500
0.541667
0.541667
0.537500
0.541667
0.537500
0.541667
0.541667
0.537500
0.541667
0.537500
0.541667
0.537500
0.541667
0.541667
0.541667
0.537500
0.541667
0.541667
0.541667
0.537500
0.541667
0.537500
0.541667
0.537500
0.541667
0.541667
0.537500
0.541667
0.537500
0.541667
0.537500
0.541667
0.537500
0.541667
0.537500
0.541667
0.537500
0.541667
0.541667
0.541667
0.537500
0.541667
0.537500
0.541667
0.537500
0.541667
0.541667
0.541667
0.537500
0.541667
0.541667
0.541667
0.537500
0.537500
0.541667
0.541667
0.537500
0.541667
0.541667
0.541667
0.537500
0.541667
0.541667
0.541667
0.541667
0.537500
0.541667
0.541667
0.537500
0.545833
0.537500
0.541667
0.541667
0.537500
0.541667
0.541667
0.541667
0.537500
0.545833
0.541667
0.537500
0.541667
0.545833
0.537500
0.541667
0.541667
0.541667
0.541667
0.537500
0.541667
0.541667
0.541667
0.541667
0.541667
0.537500
0.541667
0.541667
0.537500
0.541667
0.537500
0.541667
0.541667
0.541667
0.541667
0.537500
0.541667
0.541667
0.541667
0.537500
0.541667
0.541667
0.541667
0.537500
0.541667
0.541667
0.541667
0.541667
0.537500
0.545833
0.537500
0.541667
0.541667
0.537500
0.541667
0.541667
0.537500
0.541667
0.541667
0.541667
0.533333
0.545833
0.545833
0.541667
0.541667
0.545833
0.541667
0.537500
0.533333
0.550000
0.541667
0.537500
0.545833
0.545833
0.541667
0.537500
0.545833
0.545833
0.541667
0.545833
0.541667
0.537500
0.545833
0.541667
0.541667
0.541667
0.541667
0.541667
0.541667
0.537500
0.545833
0.541667
0.541667
0.545833
0.537500
0.537500
0.533333
0.550000
0.537500
0.541667
0.541667
0.537500
0.541667
0.541667
0.541667
0.541667
0.537500
0.541667
0.541667
0.533333
0.545833
0.537500
0.541667
0.545833
0.537500
0.541667
0.541667
0.533333
0.545833
0.541667
0.537500
0.545833
0.537500
0.541667
0.541667
0.537500
0.545833
0.537500
0.537500
0.541667
0.541667
0.537500
0.541667
0.537500
0.537500
0.541667
0.537500
0.537500
0.541667
0.541667
0.537500
0.533333
0.537500
0.541667
0.541667
0.537500
0.533333
0.545833
0.541667
0.537500
0.537500
0.537500
0.545833
0.537500
0.537500
0.541667
0.541667
0.533333
0.541667
0.537500
0.537500
0.541667
0.537500
0.537500
0.537500
0.537500
0.541667
0.537500
0.537500
0.541667
0.537500
0.537500
0.541667
0.537500
0.541667
0.537500
0.537500
0.541667
0.541667
0.537500
0.541667
0.541667
0.537500
0.541667
0.541667
0.537500
0.537500
0.541667
0.541667
0.537500
0.541667
0.537500
0.541667
0.541667
0.537500
0.537500
0.541667
0.537500
0.541667
0.541667
0.537500
0.537500
0.541667
0.537500
0.537500
0.541667
0.541667
0.537500
0.537500
0.541667
0.537500
0.537500
0.541667
0.533333
0.541667
0.541667
0.537500
0.541667
0.537500
0.537500
0.541667
0.537500
0.537500
0.541667
0.537500
0.537500
0.541667
0.537500
0.537500
0.541667
0.541667
0.533333
0.541667
0.541667
0.537500
0.537500
0.537500
0.545833
0.537500
0.541667
0.541667
0.541667
0.537500
0.545833
0.537500
0.541667
0.541667
0.541667
0.541667
0.541667
0.537500
0.541667
0.545833
0.537500
0.541667
0.541667
0.537500
0.541667
0.541667
0.541667
0.537500
0.545833
0.541667
0.541667
0.541667
0.541667
0.541667
0.541667
0.537500
0.545833
0.541667
0.541667
0.537500
0.541667
0.545833
0.545833
0.537500
0.541667
0.541667
0.541667
0.541667
0.537500
0.545833
0.545833
0.541667
0.541667
0.541667
0.541667
0.541667
0.545833
0.541667
0.541667
0.541667
0.541667
0.541667
0.545833
0.541667
0.541667
0.541667
0.541667
0.541667
0.537500
0.545833
0.545833
0.541667
0.537500
0.537500
0.545833
0.541667
0.541667
0.537500
0.545833
0.545833
0.541667
0.545833
0.541667
0.541667
0.545833
0.541667
0.541667
0.541667
0.545833
0.541667
0.541667
0.545833
0.541667
0.541667
0.541667
0.541667
0.541667
0.541667
0.545833
0.541667
0.541667
0.541667
0.541667
0.541667
0.545833
0.541667
0.537500
0.545833
0.541667
0.541667
0.545833
0.537500
0.545833
0.541667
0.541667
0.541667
0.541667
0.541667
0.541667
0.541667
0.545833
0.541667
0.541667
0.545833
0.537500
0.545833
0.541667
0.541667
0.545833
0.541667
0.541667
0.545833
0.541667
0.541667
0.541667
0.545833
0.541667
0.541667
0.545833
0.541667
0.541667
0.545833
0.541667
0.541667
0.545833
0.541667
0.541667
0.545833
0.541667
0.541667
0.545833
0.541667
0.541667
0.537500
0.545833
0.541667
0.541667
0.541667
0.541667
0.541667
0.537500
0.541667
0.545833
0.537500
0.541667
0.541667
0.541667
0.545833
0.537500
0.545833
0.541667
0.541667
0.541667
0.541667
0.541667
0.541667
0.541667
0.537500
0.545833
0.545833
0.541667
0.541667
0.541667
0.541667
0.537500
0.545833
0.545833
0.541667
0.541667
0.541667
0.550000
0.541667
0.541667
0.545833
0.541667
0.545833
0.541667
0.541667
0.545833
0.541667
0.541667
0.545833
0.541667
0.541667
0.545833
0.545833
0.541667
0.541667
0.545833
0.541667
0.541667
0.545833
0.537500
0.545833
0.541667
0.541667
0.545833
0.541667
0.541667
0.541667
0.545833
0.545833
0.541667
0.545833
0.545833
0.541667
0.545833
0.541667
0.545833
0.541667
0.545833
0.545833
0.541667
0.545833
0.545833
0.541667
0.541667
0.550000
0.545833
0.545833
0.545833
0.545833
0.545833
0.545833
0.541667
0.541667
0.550000
0.541667
0.545833
0.545833
0.541667
0.541667
0.550000
0.541667
0.545833
0.545833
0.545833
0.545833
0.545833
0.541667
0.545833
0.545833
0.545833
0.545833
0.545833
0.541667
0.541667
0.550000
0.545833
0.545833
0.541667
0.545833
0.545833
0.545833
0.541667
0.545833
0.545833
0.545833
0.537500
0.554167
0.545833
0.545833
0.537500
0.550000
0.550000
0.541667
0.545833
0.545833
0.545833
0.545833
0.545833
0.545833
0.541667
0.541667
0.550000
0.545833
0.545833
0.545833
0.541667
0.545833
0.545833
0.541667
0.541667
0.545833
0.545833
0.537500
0.541667
0.545833
0.541667
0.541667
0.541667
0.545833
0.537500
0.541667
0.541667
0.541667
0.541667
0.541667
0.545833
0.533333
0.545833
0.541667
0.537500
0.545833
0.541667
0.541667
0.537500
0.537500
0.545833
0.541667
0.512500
0.479167
0.612500
0.550000
0.537500
0.541667
0.545833
0.537500
0.541667
0.537500
0.541667
0.541667
0.541667
0.541667
0.537500
0.541667
0.541667
0.537500
0.541667
0.541667
0.537500
0.545833
0.537500
0.541667
0.537500
0.541667
0.541667
0.537500
0.541667
0.537500
0.537500
0.537500
0.541667
0.537500
0.537500
0.541667
0.537500
0.537500
0.541667
0.537500
0.541667
0.537500
0.537500
0.541667
0.537500
0.537500
0.541667
0.537500
0.541667
0.537500
0.537500
0.541667
0.537500
0.537500
0.537500
0.537500
0.537500
0.537500
0.537500
0.537500
0.537500
0.537500
0.533333
0.537500
0.537500
0.537500
0.533333
0.537500
0.533333
0.537500
0.533333
0.537500
0.533333
0.537500
0.537500
0.533333
0.537500
0.533333
0.537500
0.533333
0.537500
0.537500
0.533333
0.537500
0.533333
0.537500
0.533333
0.533333
0.541667
0.541667
0.537500
0.537500
0.537500
0.541667
0.537500
0.541667
0.537500
0.537500
0.537500
0.537500
0.708333
0.370833
0.541667
0.270833
0.262500
0.541667
0.537500
0.533333
0.541667
0.541667
0.537500
0.537500
0.537500
0.541667
0.450000
0.608333
0.541667
0.533333
0.541667
0.541667
0.537500
0.541667
0.541667
0.537500
0.541667
0.537500
0.537500
0.541667
0.504167
0.570833
0.541667
0.537500
0.537500
0.537500
0.537500
0.537500
0.541667
0.533333
0.541667
0.508333
0.562500
0.541667
0.533333
0.533333
0.541667
0.533333
0.537500
0.533333
0.533333
0.537500
0.537500
0.537500
0.529167
0.537500
0.537500
0.529167
0.541667
0.533333
0.533333
0.537500
0.533333
0.533333
0.537500
0.537500
0.533333
0.537500
0.533333
0.533333
0.537500
0.533333
0.533333
0.533333
0.533333
0.537500
0.533333
0.533333
0.529167
0.533333
0.537500
0.533333
0.533333
0.533333
0.533333
0.533333
0.533333
0.533333
0.533333
0.533333
0.533333
0.533333
0.533333
0.520833
0.541667
0.537500
0.533333
0.533333
0.533333
0.533333
0.529167
0.533333
0.533333
0.533333
0.529167
0.533333
0.537500
0.533333
1.066667
0.533333
0.533333
0.537500
0.529167
0.537500
0.533333
0.537500
0.537500
0.529167
1.070833
0.537500
0.533333
0.533333
0.537500
0.533333
0.537500
0.537500
0.533333
0.533333
0.537500
0.533333
0.533333
0.533333
0.537500
0.533333
0.533333
0.533333
0.537500
0.529167
0.537500
0.537500
0.533333
0.533333
0.533333
0.533333
0.533333
0.537500
0.533333
0.537500
0.533333
0.537500
0.533333
0.533333
0.537500
0.533333
0.537500
0.533333
0.537500
0.533333
0.537500
0.533333
0.537500
0.145833
0.387500
0.533333
0.537500
0.533333
0.537500
0.533333
0.537500
0.533333
0.537500
0.533333
0.533333
0.537500
0.529167
0.537500
0.533333
0.537500
0.862500
0.208333
0.537500
0.529167
0.537500
0.533333
0.533333
0.537500
0.529167
0.537500
0.533333
0.529167
0.537500
0.533333
0.533333
0.533333
0.529167
0.537500
0.533333
0.537500
0.533333
0.533333
0.537500
0.533333
0.533333
0.533333
0.533333
0.541667
0.533333
0.537500
0.533333
0.533333
0.533333
0.533333
0.533333
0.537500
0.533333
0.533333
0.537500
0.537500
0.533333
0.537500
0.537500
0.533333
0.533333
0.533333
0.533333
0.537500
0.533333
0.529167
0.537500
0.533333
0.533333
0.533333
0.533333
0.533333
0.533333
0.533333
0.533333
0.533333
0.533333
0.537500
0.529167
0.533333
0.533333
0.533333
0.533333
0.533333
0.537500
0.529167
0.533333
0.533333
0.533333
0.537500
0.533333
0.533333
0.533333
0.533333
0.537500
0.533333
0.537500
0.533333
0.537500
0.533333
0.533333
0.537500
0.537500
0.529167
0.537500
0.533333
0.537500
0.533333
0.491667
0.570833
0.537500
0.529167
0.537500
0.529167
0.537500
0.537500
0.529167
0.533333
0.537500
0.529167
0.533333
0.533333
0.533333
0.529167
0.533333
0.533333
0.533333
0.533333
0.529167
0.529167
0.529167
0.533333
0.529167
0.533333
0.533333
0.529167
0.529167
0.533333
0.529167
0.533333
0.533333
0.533333
0.533333
0.529167
0.529167
0.533333
0.533333
0.533333
0.533333
0.533333
0.537500
0.533333
0.529167
0.533333
0.533333
0.529167
0.533333
0.537500
0.525000
0.533333
0.537500
0.529167
0.529167
0.529167
0.533333
0.533333
0.533333
0.529167
0.529167
0.529167
0.529167
0.533333
0.529167
0.508333
0.495833
0.579167
0.533333
0.529167
0.529167
0.533333
0.525000
0.529167
0.533333
0.529167
0.529167
0.533333
0.529167
0.529167
0.529167
0.529167
0.529167
0.525000
0.529167
0.529167
0.529167
0.525000
0.533333
0.525000
0.525000
0.529167
0.529167
0.529167
0.529167
0.529167
0.529167
0.529167
0.525000
0.529167
0.529167
0.529167
0.529167
0.529167
0.275000
0.250000
0.533333
0.533333
0.529167
0.529167
0.525000
0.529167
0.529167
0.529167
0.525000
0.529167
0.529167
0.525000
0.529167
0.529167
0.529167
0.525000
0.529167
0.525000
0.529167
0.533333
0.529167
0.529167
0.529167
0.529167
0.525000
0.533333
0.529167
0.525000
0.529167
0.529167
0.529167
0.529167
0.529167
0.529167
0.529167
0.529167
0.525000
0.529167
0.529167
0.529167
0.529167
0.525000
0.529167
0.529167
0.529167
0.529167
0.525000
0.533333
0.525000
0.529167
0.529167
0.529167
