0.720833
0.695833
0.920833
1.079167
0.916667
0.854167
0.833333
0.787500
0.841667
0.754167
0.720833
0.750000
1.225000
0.895833
0.850000
0.833333
0.829167
0.791667
0.766667
0.825000
0.720833
0.687500
0.795833
1.179167
0.887500
0.887500
0.850000
0.866667
0.550000
0.475000
0.725000
0.679167
0.425000
1.441667
0.837500
0.816667
0.770833
0.766667
0.725000
0.691667
0.700000
1.237500
0.483333
0.937500
0.879167
0.475000
1.237500
0.575000
0.641667
0.691667
0.675000
0.862500
1.141667
0.795833
0.716667
0.441667
0.416667
0.358333
0.316667
0.325000
0.320833
0.308333
1.154167
0.445833
0.325000
0.333333
0.362500
0.345833
0.329167
0.370833
0.387500
0.345833
0.316667
0.312500
0.345833
0.379167
0.345833
0.325000
0.354167
0.362500
0.308333
0.341667
0.354167
0.333333
0.308333
0.354167
0.354167
0.341667
0.345833
0.320833
0.345833
0.354167
0.362500
0.341667
0.320833
0.329167
0.341667
0.566667
0.370833
0.333333
0.383333
0.341667
1.341667
0.433333
1.229167
0.737500
0.691667
0.654167
0.304167
0.362500
0.341667
0.375000
0.345833
0.337500
0.358333
0.362500
0.350000
0.333333
0.320833
0.312500
0.308333
0.320833
0.358333
0.333333
0.320833
0.337500
0.387500
0.358333
0.345833
0.337500
0.320833
0.333333
0.345833
0.475000
0.383333
0.354167
0.391667
0.350000
0.333333
0.333333
0.320833
0.312500
0.329167
0.333333
0.316667
0.329167
0.325000
0.325000
0.329167
0.329167
0.354167
0.329167
0.320833
0.341667
0.329167
0.316667
0.341667
0.354167
0.345833
0.395833
0.341667
0.320833
0.312500
0.300000
0.354167
0.379167
0.333333
0.325000
0.325000
0.354167
0.366667
0.337500
0.337500
0.366667
0.325000
0.516667
0.350000
0.308333
0.333333
0.358333
0.525000
0.404167
0.387500
0.354167
0.337500
0.341667
0.441667
0.354167
0.354167
0.470833
0.354167
0.329167
0.320833
0.320833
0.316667
0.341667
0.375000
0.345833
0.337500
0.329167
0.316667
0.312500
0.312500
0.345833
0.350000
0.462500
0.341667
0.300000
0.304167
0.295833
0.329167
0.337500
0.341667
0.333333
0.333333
0.320833
0.320833
0.325000
0.333333
0.325000
0.341667
0.325000
0.308333
0.325000
0.312500
0.362500
0.375000
0.350000
0.345833
0.325000
0.325000
0.320833
0.320833
0.325000
0.341667
0.441667
0.325000
0.329167
0.333333
0.312500
0.333333
0.316667
0.333333
0.350000
0.337500
0.333333
0.329167
0.337500
0.350000
0.320833
0.295833
0.304167
0.337500
0.350000
0.337500
0.337500
0.345833
0.350000
0.341667
0.329167
0.320833
0.312500
0.304167
0.345833
0.391667
0.354167
0.333333
0.329167
0.325000
0.541667
0.408333
0.504167
0.379167
0.308333
0.295833
0.329167
0.329167
0.320833
0.333333
0.337500
0.329167
0.337500
0.337500
0.320833
0.329167
0.345833
0.333333
0.333333
0.325000
0.350000
0.345833
0.316667
0.304167
0.379167
0.383333
0.329167
0.316667
0.341667
0.350000
0.350000
0.358333
0.341667
0.333333
0.337500
0.341667
0.304167
0.312500
0.341667
0.350000
0.337500
0.325000
0.400000
0.366667
0.537500
0.387500
0.333333
0.337500
0.379167
0.341667
0.325000
0.333333
0.341667
0.329167
0.333333
0.337500
0.316667
0.362500
0.375000
0.370833
0.362500
0.483333
0.462500
0.362500
0.333333
0.350000
0.329167
0.350000
0.370833
0.329167
0.550000
0.612500
0.354167
0.320833
0.308333
0.358333
0.350000
0.333333
0.354167
0.333333
0.354167
0.345833
0.329167
0.337500
0.333333
0.329167
0.320833
0.320833
0.333333
0.337500
0.333333
0.325000
0.333333
0.387500
0.350000
0.341667
0.337500
0.337500
0.325000
0.329167
0.333333
0.333333
0.333333
0.333333
0.333333
0.337500
0.333333
0.329167
0.337500
0.341667
0.341667
0.341667
0.345833
0.354167
0.337500
0.400000
0.370833
0.358333
0.341667
0.358333
0.329167
0.337500
0.333333
0.325000
0.325000
0.333333
0.325000
0.325000
0.341667
0.391667
0.412500
0.354167
0.304167
0.283333
0.341667
0.354167
0.366667
0.358333
0.370833
0.345833
0.350000
0.337500
0.337500
0.316667
0.308333
0.333333
0.320833
0.300000
0.320833
0.329167
0.370833
0.337500
0.550000
0.508333
0.529167
0.350000
0.320833
0.320833
0.320833
0.358333
0.329167
0.345833
0.341667
0.354167
0.358333
0.333333
0.329167
0.337500
0.329167
0.304167
0.308333
0.333333
0.216667
0.504167
0.366667
0.329167
0.316667
0.337500
0.325000
0.325000
0.325000
0.320833
0.358333
0.345833
0.316667
0.333333
0.354167
0.350000
0.412500
0.391667
0.312500
0.300000
0.316667
0.308333
0.308333
0.300000
0.325000
0.345833
0.379167
0.358333
0.325000
0.316667
0.320833
0.337500
0.350000
0.337500
0.329167
0.329167
0.312500
0.325000
0.366667
0.350000
0.337500
0.333333
0.333333
0.320833
0.345833
0.350000
0.400000
0.358333
0.337500
0.225000
0.408333
0.312500
0.333333
0.383333
0.354167
0.416667
0.958333
1.025000
0.845833
1.437500
0.766667
1.458333
0.720833
0.933333
1.225000
0.904167
0.854167
0.754167
0.733333
0.733333
1.358333
0.750000
0.720833
0.720833
1.245833
0.837500
0.720833
0.729167
1.233333
0.829167
0.712500
0.725000
1.216667
0.850000
0.704167
0.720833
1.208333
0.850000
0.704167
0.716667
0.729167
1.225000
1.433333
1.375000
1.400000
1.408333
1.420833
0.887500
0.475000
0.916667
0.816667
0.570833
1.183333
0.762500
0.429167
0.370833
0.345833
0.366667
0.350000
0.550000
1.325000
0.458333
0.612500
0.629167
0.679167
0.650000
0.616667
0.887500
0.791667
0.420833
0.970833
0.733333
0.679167
0.641667
0.566667
0.250000
0.316667
1.241667
0.754167
0.850000
0.675000
0.587500
0.545833
0.695833
0.658333
0.562500
0.641667
0.645833
0.604167
0.716667
0.683333
0.637500
0.379167
0.350000
0.337500
0.350000
0.341667
0.337500
0.333333
0.358333
0.358333
0.333333
0.358333
0.475000
0.358333
0.370833
0.533333
0.362500
0.333333
0.341667
0.312500
0.300000
0.304167
0.391667
0.379167
0.337500
0.375000
0.350000
0.333333
0.329167
0.320833
0.320833
0.350000
0.350000
0.325000
0.320833
0.345833
0.341667
0.316667
0.308333
0.325000
0.354167
0.341667
0.333333
0.350000
0.345833
0.329167
0.341667
0.354167
0.333333
0.312500
0.350000
0.350000
0.316667
0.312500
0.508333
0.341667
0.333333
0.391667
1.570833
0.350000
1.325000
0.441667
1.266667
0.433333
1.250000
0.837500
0.416667
1.191667
0.741667
0.733333
0.870833
0.420833
1.375000
0.445833
1.287500
0.895833
0.470833
1.204167
0.862500
0.470833
0.604167
1.233333
0.741667
1.683333
0.716667
0.570833
0.550000
0.600000
0.491667
0.358333
0.320833
0.329167
1.062500
0.758333
0.716667
0.679167
0.616667
0.675000
0.695833
0.691667
0.650000
0.741667
0.416667
0.341667
0.316667
0.562500
0.379167
0.341667
0.333333
0.312500
0.341667
0.529167
0.337500
0.362500
0.579167
0.395833
0.341667
0.333333
0.350000
0.370833
0.345833
0.350000
0.333333
0.325000
0.316667
0.312500
0.300000
0.312500
0.333333
0.337500
0.341667
0.491667
0.358333
0.329167
0.333333
0.337500
0.325000
0.337500
0.341667
0.370833
0.362500
0.333333
0.329167
0.341667
0.341667
0.341667
0.337500
0.308333
0.329167
0.341667
0.362500
0.358333
0.370833
0.404167
0.354167
0.333333
0.325000
0.295833
0.304167
0.350000
0.337500
0.320833
0.358333
0.333333
0.354167
0.337500
0.329167
0.358333
0.316667
0.304167
0.333333
0.329167
0.341667
0.341667
0.345833
0.341667
0.337500
0.329167
0.333333
0.333333
0.350000
0.370833
0.337500
0.333333
0.329167
0.337500
0.329167
0.316667
0.320833
0.329167
0.329167
0.345833
0.325000
0.366667
0.345833
0.320833
0.320833
0.358333
0.370833
0.333333
0.329167
0.337500
0.333333
0.333333
0.325000
0.325000
0.370833
0.379167
0.350000
0.341667
0.320833
0.295833
0.320833
0.312500
0.320833
0.333333
0.333333
0.333333
0.329167
0.325000
0.325000
0.333333
0.333333
0.325000
0.320833
0.337500
0.354167
0.462500
0.358333
0.312500
0.283333
0.300000
0.333333
0.341667
0.375000
0.375000
0.341667
0.337500
0.362500
0.316667
0.312500
0.412500
0.329167
0.325000
0.329167
0.312500
0.354167
0.441667
0.341667
0.308333
0.316667
0.320833
0.325000
0.341667
0.333333
0.333333
0.329167
0.325000
0.312500
0.379167
0.395833
0.379167
0.337500
0.333333
0.329167
0.325000
0.316667
0.350000
0.387500
0.337500
0.325000
0.341667
0.316667
0.325000
0.329167
0.304167
0.341667
0.416667
0.400000
0.341667
0.320833
0.329167
0.337500
0.329167
0.333333
0.350000
0.345833
0.345833
0.333333
0.333333
0.325000
0.350000
0.354167
0.525000
0.358333
0.366667
0.316667
0.337500
0.341667
0.345833
0.362500
0.341667
0.325000
0.329167
0.333333
0.325000
0.375000
0.383333
0.337500
0.308333
0.312500
0.329167
0.316667
0.341667
0.337500
0.350000
0.337500
0.345833
0.325000
0.333333
0.337500
0.329167
0.333333
0.329167
0.325000
0.325000
0.304167
0.320833
0.329167
0.320833
0.333333
0.341667
0.350000
0.354167
0.337500
0.345833
0.325000
0.333333
0.333333
0.383333
0.383333
0.341667
0.366667
0.545833
0.350000
0.295833
0.312500
0.341667
0.354167
0.333333
0.345833
0.345833
0.320833
0.316667
0.350000
0.358333
0.350000
0.341667
0.320833
0.304167
0.312500
0.391667
0.358333
0.329167
0.341667
0.350000
0.333333
0.312500
0.308333
0.354167
0.337500
0.337500
0.370833
0.325000
0.329167
0.329167
0.308333
0.312500
0.329167
0.341667
0.325000
0.341667
0.329167
0.316667
0.300000
0.325000
0.341667
0.320833
0.316667
0.537500
0.358333
0.308333
0.316667
0.400000
0.337500
0.320833
0.216667
0.445833
0.358333
0.333333
0.379167
0.379167
0.341667
0.316667
0.316667
0.329167
0.350000
0.408333
0.341667
0.308333
0.291667
0.320833
0.354167
0.337500
0.333333
0.329167
0.320833
0.545833
0.400000
0.325000
0.308333
0.320833
0.300000
0.316667
0.312500
0.308333
0.312500
0.312500
0.304167
0.308333
0.329167
0.341667
0.304167
0.358333
0.345833
0.329167
0.345833
1.633333
1.562500
0.354167
1.404167
0.820833
0.833333
0.741667
1.433333
0.779167
0.808333
0.762500
0.750000
0.845833
1.237500
0.891667
0.866667
0.829167
0.729167
0.712500
0.725000
1.337500
0.762500
0.733333
0.712500
0.733333
1.225000
1.470833
1.491667
1.475000
1.479167
1.487500
0.783333
1.445833
0.779167
0.750000
0.750000
0.745833
0.745833
0.745833
0.741667
0.750000
0.745833
0.745833
0.745833
0.750000
0.750000
0.745833
0.750000
0.750000
0.750000
0.745833
0.770833
0.745833
0.762500
0.770833
0.750000
0.770833
0.770833
1.200000
0.712500
0.616667
0.529167
0.675000
1.433333
0.820833
0.791667
1.441667
0.754167
0.729167
0.666667
1.083333
1.587500
0.720833
0.612500
0.620833
1.008333
0.770833
0.445833
1.112500
0.737500
0.604167
0.654167
0.662500
0.625000
0.629167
0.633333
0.425000
1.270833
0.745833
0.700000
0.658333
0.604167
0.562500
0.650000
0.687500
0.500000
0.683333
0.662500
0.604167
0.600000
0.616667
0.420833
0.350000
0.304167
0.295833
0.320833
0.337500
0.400000
0.383333
0.337500
0.354167
0.366667
0.329167
0.379167
0.362500
0.512500
0.479167
0.245833
0.308333
0.316667
0.308333
0.341667
0.350000
0.337500
0.333333
0.341667
0.333333
0.358333
0.387500
0.362500
0.391667
0.525000
0.354167
0.291667
0.308333
0.308333
0.308333
0.329167
0.337500
0.366667
0.362500
0.341667
0.325000
0.329167
0.366667
0.362500
0.320833
0.291667
0.345833
0.370833
0.345833
0.333333
0.329167
0.320833
0.316667
0.320833
0.337500
0.341667
0.350000
0.362500
0.333333
0.325000
0.312500
0.320833
0.329167
0.312500
0.329167
0.354167
0.333333
0.400000
0.404167
0.358333
0.333333
0.300000
0.350000
0.437500
0.350000
0.320833
0.329167
0.341667
0.408333
0.341667
0.329167
0.337500
0.312500
0.337500
0.325000
0.329167
0.345833
0.329167
0.316667
0.341667
0.333333
0.350000
0.341667
0.333333
0.341667
0.329167
0.329167
0.337500
0.325000
0.325000
0.329167
0.329167
0.329167
0.325000
0.325000
0.325000
0.325000
0.325000
0.329167
0.333333
0.337500
0.329167
0.316667
0.329167
0.337500
0.329167
0.345833
0.345833
0.329167
0.325000
0.325000
0.320833
0.345833
0.337500
0.358333
0.366667
0.333333
0.329167
0.325000
0.329167
0.325000
0.333333
0.333333
0.329167
0.325000
0.320833
0.329167
0.329167
0.325000
0.325000
0.333333
0.379167
0.345833
0.329167
0.341667
0.325000
0.329167
0.337500
0.416667
0.329167
0.308333
0.325000
0.329167
0.362500
0.383333
0.341667
0.325000
0.600000
0.358333
0.312500
0.329167
0.325000
0.329167
0.341667
0.333333
0.354167
0.354167
0.333333
0.329167
0.350000
0.329167
0.566667
0.333333
0.300000
0.533333
0.341667
0.350000
0.358333
0.337500
0.350000
0.333333
0.312500
0.312500
0.300000
0.325000
0.325000
0.333333
0.408333
0.354167
0.329167
0.333333
0.316667
0.320833
0.325000
0.387500
0.358333
0.316667
0.225000
0.391667
0.312500
0.325000
0.329167
0.333333
0.325000
0.341667
0.358333
0.229167
0.470833
0.325000
0.358333
0.358333
0.341667
0.341667
0.320833
0.345833
0.370833
0.325000
0.316667
0.341667
0.345833
0.333333
0.320833
0.333333
0.341667
0.333333
0.329167
0.329167
0.345833
0.345833
0.333333
0.316667
0.320833
0.350000
0.325000
0.333333
0.329167
0.329167
0.325000
0.329167
0.320833
0.329167
0.337500
0.370833
0.362500
0.420833
0.408333
0.441667
0.350000
0.325000
0.325000
0.329167
0.329167
0.329167
0.312500
0.308333
0.333333
0.354167
0.341667
0.333333
0.325000
0.333333
0.325000
0.375000
0.354167
0.320833
0.316667
0.316667
0.333333
0.329167
0.337500
0.329167
0.350000
0.358333
0.329167
0.345833
0.341667
0.325000
0.325000
0.345833
0.341667
0.375000
0.366667
0.329167
0.333333
0.337500
0.354167
