0.637500
0.491667
0.495833
0.520833
0.362500
0.637500
0.487500
0.495833
0.516667
0.366667
0.633333
0.487500
0.500000
0.516667
0.479167
0.520833
0.483333
0.504167
0.512500
0.362500
0.637500
0.366667
0.620833
0.516667
0.362500
0.641667
0.362500
0.620833
0.520833
0.475000
0.525000
0.366667
0.620833
0.525000
0.350000
0.645833
0.366667
0.620833
0.520833
0.358333
0.641667
0.366667
0.625000
0.520833
0.358333
0.641667
0.362500
0.629167
0.533333
0.341667
0.654167
1.579167
1.341667
0.358333
1.445833
0.366667
1.329167
0.462500
1.312500
0.462500
1.300000
0.462500
1.283333
0.466667
1.279167
0.583333
1.150000
0.583333
1.137500
0.587500
1.129167
0.591667
1.125000
0.587500
1.120833
0.595833
1.108333
0.595833
1.104167
0.595833
1.104167
0.600000
0.787500
0.666667
0.995833
0.700000
1.625000
0.858333
0.587500
0.816667
0.766667
0.629167
0.679167
0.629167
0.704167
0.620833
1.554167
0.470833
1.320833
0.945833
0.925000
0.591667
1.108333
0.470833
1.275000
0.591667
1.150000
0.591667
1.150000
0.604167
1.133333
0.612500
1.108333
0.595833
1.129167
0.604167
1.125000
0.612500
1.112500
0.612500
0.820833
0.358333
1.945833
0.662500
0.562500
0.587500
0.804167
0.700000
1.270833
0.929167
1.704167
0.925000
0.916667
0.908333
0.900000
0.595833
0.591667
0.558333
0.658333
0.675000
0.329167
0.370833
1.258333
0.804167
1.416667
0.887500
0.612500
0.708333
0.670833
0.725000
0.687500
0.716667
0.700000
0.708333
0.733333
0.687500
0.745833
0.720833
0.720833
0.695833
0.729167
0.512500
0.520833
1.337500
0.466667
0.354167
0.345833
0.391667
0.391667
0.341667
0.312500
0.295833
0.316667
1.379167
0.950000
1.791667
0.962500
1.750000
0.950000
0.937500
1.720833
1.766667
0.795833
0.662500
0.820833
0.675000
0.687500
0.704167
0.695833
0.700000
0.708333
0.691667
0.700000
0.708333
0.708333
0.691667
0.700000
0.700000
0.700000
0.704167
0.695833
0.700000
0.700000
0.695833
0.704167
0.683333
0.695833
0.712500
0.700000
0.558333
0.841667
1.700000
0.825000
0.870833
1.475000
0.483333
1.108333
1.379167
0.487500
1.175000
0.475000
1.329167
0.600000
1.191667
1.779167
1.758333
1.758333
1.758333
0.816667
0.733333
0.604167
0.704167
0.687500
0.691667
0.687500
0.700000
0.700000
0.683333
0.708333
0.695833
0.691667
0.687500
0.704167
0.695833
0.695833
0.708333
0.670833
0.729167
1.791667
0.816667
1.508333
1.800000
1.779167
0.795833
0.458333
0.375000
0.391667
0.404167
0.379167
0.366667
0.370833
0.358333
0.354167
0.366667
0.370833
0.354167
0.358333
0.375000
0.366667
0.366667
0.366667
0.370833
0.370833
0.375000
0.370833
0.375000
0.375000
0.375000
0.375000
0.375000
0.375000
0.370833
0.375000
0.370833
0.366667
0.370833
0.375000
0.375000
0.366667
0.366667
0.370833
0.375000
0.362500
0.370833
0.366667
0.358333
0.362500
0.375000
0.366667
0.362500
0.358333
0.366667
0.366667
0.366667
0.362500
0.366667
0.366667
0.366667
0.362500
0.366667
0.366667
0.366667
0.370833
0.370833
0.366667
0.366667
0.370833
0.370833
0.370833
0.362500
0.370833
0.370833
0.370833
0.366667
0.370833
0.366667
0.370833
0.366667
0.370833
0.370833
0.370833
0.370833
0.370833
0.366667
0.366667
0.366667
0.370833
0.370833
0.370833
0.362500
0.370833
0.366667
0.370833
0.375000
0.370833
0.370833
0.370833
0.375000
0.370833
0.366667
0.370833
0.375000
0.370833
0.370833
0.375000
0.379167
0.366667
0.362500
0.375000
0.379167
0.362500
0.366667
0.375000
0.375000
0.370833
0.366667
0.375000
0.379167
0.366667
0.358333
0.375000
0.379167
0.366667
0.362500
0.375000
0.379167
0.366667
0.366667
0.375000
0.370833
0.366667
0.366667
0.370833
0.375000
0.366667
0.358333
0.375000
0.379167
0.366667
0.362500
0.370833
0.375000
0.366667
0.366667
0.370833
0.366667
0.366667
0.358333
0.375000
0.375000
0.375000
0.370833
0.358333
0.370833
0.370833
0.358333
0.370833
0.375000
0.358333
0.375000
0.370833
0.358333
0.370833
0.375000
0.362500
0.362500
0.370833
0.375000
0.354167
0.366667
0.370833
0.370833
0.362500
0.362500
0.370833
0.370833
0.362500
0.358333
0.366667
0.379167
0.366667
0.366667
0.366667
0.358333
0.370833
0.370833
0.370833
0.358333
0.370833
0.370833
0.362500
0.366667
0.370833
0.366667
0.366667
0.358333
0.366667
0.375000
0.354167
0.370833
0.375000
0.366667
0.366667
0.366667
0.370833
0.358333
0.375000
0.375000
0.362500
0.358333
0.375000
0.375000
0.366667
0.358333
0.375000
0.375000
0.354167
0.370833
0.375000
0.370833
0.358333
0.366667
0.370833
0.375000
0.366667
0.354167
0.375000
0.379167
0.366667
0.366667
0.370833
0.370833
0.362500
0.370833
0.370833
0.366667
0.366667
0.370833
0.370833
0.370833
0.366667
0.362500
0.370833
0.370833
0.362500
0.370833
0.370833
0.362500
0.375000
0.370833
0.358333
0.370833
0.370833
0.366667
0.366667
0.366667
0.366667
0.370833
0.362500
0.366667
0.366667
0.362500
0.370833
0.366667
0.350000
0.370833
0.391667
0.383333
0.375000
0.366667
0.375000
0.370833
0.362500
0.358333
0.358333
0.366667
0.362500
0.362500
0.366667
0.362500
0.362500
0.362500
0.354167
0.366667
0.366667
0.366667
0.358333
0.362500
0.362500
0.366667
0.366667
0.362500
0.362500
0.366667
0.362500
0.366667
0.366667
0.366667
0.362500
0.362500
0.358333
0.366667
0.362500
0.366667
0.366667
0.362500
0.366667
0.362500
0.366667
0.366667
0.354167
0.370833
0.370833
0.358333
0.366667
0.366667
0.358333
0.366667
0.370833
0.358333
0.366667
0.370833
0.366667
0.366667
0.358333
0.375000
0.370833
0.354167
0.375000
0.370833
0.362500
0.358333
0.370833
0.370833
0.354167
0.370833
0.370833
0.362500
0.370833
0.370833
0.362500
0.366667
0.366667
0.366667
0.362500
0.370833
0.370833
0.362500
0.366667
0.366667
0.366667
0.366667
0.358333
0.370833
0.370833
0.358333
0.370833
0.366667
0.366667
0.366667
0.370833
0.358333
0.366667
0.370833
0.358333
0.370833
0.370833
0.362500
0.362500
0.366667
0.370833
0.362500
0.362500
0.366667
0.366667
0.366667
0.362500
0.366667
0.366667
0.362500
0.362500
0.366667
0.370833
0.362500
0.358333
0.370833
0.366667
0.345833
0.366667
0.379167
0.358333
0.345833
0.341667
0.375000
0.391667
0.375000
0.366667
0.362500
0.362500
0.366667
0.362500
0.366667
0.366667
0.366667
0.362500
0.354167
0.370833
0.366667
0.362500
0.366667
0.366667
0.362500
0.366667
0.366667
0.358333
0.362500
0.366667
0.362500
0.366667
0.362500
0.370833
0.362500
0.362500
0.354167
0.370833
0.366667
0.354167
0.366667
0.370833
0.362500
0.362500
0.366667
0.366667
0.358333
0.366667
0.366667
0.362500
0.354167
0.370833
0.370833
0.354167
0.362500
0.370833
0.366667
0.345833
0.391667
0.404167
0.383333
0.366667
0.658333
1.479167
0.995833
0.950000
0.937500
0.937500
0.920833
0.929167
0.920833
0.920833
0.916667
0.920833
0.916667
0.925000
0.916667
0.916667
0.912500
0.912500
0.916667
0.895833
0.904167
0.891667
0.904167
0.895833
0.891667
0.895833
0.883333
0.891667
0.895833
0.887500
0.891667
0.887500
0.887500
0.887500
0.883333
0.883333
0.891667
0.875000
0.358333
0.354167
1.358333
0.591667
0.237500
0.479167
1.091667
0.891667
0.770833
1.416667
0.616667
0.658333
0.650000
0.529167
1.104167
0.895833
0.912500
0.475000
0.337500
0.308333
0.366667
0.375000
0.341667
0.350000
0.345833
0.350000
0.345833
1.287500
1.133333
1.245833
0.945833
0.929167
0.920833
0.916667
0.933333
0.908333
0.920833
0.904167
0.908333
0.916667
0.912500
0.912500
0.908333
0.470833
0.708333
0.762500
0.520833
1.291667
0.937500
1.716667
0.929167
0.925000
0.916667
0.479167
0.712500
0.679167
0.683333
0.654167
0.741667
1.262500
0.845833
1.445833
0.841667
0.766667
0.787500
0.737500
0.762500
0.725000
0.620833
0.637500
0.658333
0.708333
0.833333
0.650000
0.645833
0.695833
0.700000
0.716667
0.729167
0.720833
0.537500
0.275000
0.366667
0.366667
0.391667
0.370833
0.366667
0.416667
0.408333
0.379167
0.362500
0.633333
1.433333
1.366667
0.912500
1.316667
0.895833
1.320833
0.762500
0.712500
0.779167
1.458333
0.962500
1.025000
0.916667
0.954167
0.941667
0.937500
0.937500
0.929167
0.929167
0.916667
0.920833
0.912500
0.916667
0.908333
0.479167
0.708333
0.812500
0.833333
0.495833
0.416667
0.679167
1.329167
0.862500
0.950000
1.391667
0.829167
0.595833
0.270833
0.329167
0.341667
0.400000
0.379167
0.337500
0.329167
0.362500
0.358333
0.337500
0.350000
0.362500
0.354167
0.345833
0.358333
0.366667
0.354167
0.354167
0.362500
0.362500
0.358333
0.354167
0.362500
0.370833
0.354167
0.362500
0.366667
0.362500
0.358333
0.362500
0.366667
0.362500
0.362500
0.366667
0.366667
0.362500
0.362500
0.366667
0.370833
0.362500
0.366667
0.370833
0.354167
0.358333
0.375000
0.375000
0.366667
0.366667
0.366667
0.375000
0.366667
0.358333
0.362500
0.375000
0.375000
0.370833
0.366667
0.366667
0.370833
0.358333
0.366667
0.375000
0.345833
0.341667
0.387500
0.387500
0.362500
0.375000
0.387500
0.383333
0.395833
0.254167
0.466667
0.383333
0.337500
0.325000
0.379167
0.408333
0.383333
0.362500
0.354167
0.379167
0.358333
0.379167
0.387500
0.400000
0.379167
0.358333
0.245833
0.445833
0.379167
0.383333
0.370833
0.341667
0.429167
0.408333
0.375000
0.366667
0.587500
0.375000
0.316667
0.370833
0.370833
0.395833
0.395833
0.391667
0.387500
0.375000
0.370833
0.387500
0.366667
0.391667
0.366667
0.354167
0.354167
0.375000
0.366667
0.379167
0.375000
0.354167
0.320833
0.329167
0.345833
0.337500
0.408333
0.762500
0.145833
0.520833
0.250000
0.491667
0.354167
0.370833
0.362500
0.358333
0.379167
0.345833
0.383333
0.375000
0.370833
0.416667
0.387500
0.379167
0.375000
0.370833
1.775000
1.208333
1.308333
1.104167
0.929167
0.937500
0.920833
1.308333
1.058333
0.962500
0.945833
0.941667
0.929167
0.933333
0.929167
0.925000
0.925000
0.920833
0.925000
0.916667
0.920833
0.912500
0.358333
0.333333
0.316667
0.783333
1.066667
0.470833
0.337500
0.308333
0.350000
0.516667
0.320833
0.520833
0.258333
0.395833
0.354167
0.341667
0.345833
0.370833
0.387500
1.416667
0.458333
0.358333
0.341667
0.325000
0.354167
0.412500
0.387500
1.520833
0.462500
0.345833
0.333333
0.587500
1.408333
0.475000
0.366667
0.333333
0.762500
0.316667
1.162500
0.470833
0.366667
0.337500
0.316667
0.375000
0.379167
0.254167
0.429167
0.358333
0.258333
0.445833
0.366667
0.358333
0.354167
0.341667
0.333333
0.337500
0.362500
0.391667
0.420833
0.700000
1.208333
0.454167
0.383333
0.362500
0.333333
0.533333
0.300000
0.400000
0.366667
0.366667
0.391667
0.387500
0.420833
0.387500
0.379167
0.370833
0.362500
0.387500
0.341667
0.412500
0.450000
0.412500
0.412500
0.383333
0.400000
0.370833
0.329167
0.391667
0.400000
0.608333
0.275000
0.379167
0.420833
0.375000
0.387500
0.366667
0.358333
0.370833
0.370833
0.387500
0.379167
0.366667
0.391667
0.366667
0.675000
1.966667
0.479167
