1.679167
1.670833
1.679167
1.687500
1.704167
1.691667
1.700000
1.691667
1.700000
1.687500
1.691667
0.775000
0.658333
0.666667
0.408333
0.387500
0.350000
0.295833
0.333333
0.287500
0.270833
0.366667
0.341667
0.445833
0.475000
0.404167
0.358333
0.333333
0.362500
0.345833
0.333333
0.333333
0.333333
0.345833
0.345833
0.320833
0.316667
0.316667
0.333333
0.366667
0.391667
0.379167
0.425000
0.337500
0.304167
0.325000
0.325000
0.395833
0.354167
0.333333
0.341667
0.345833
0.362500
0.337500
0.308333
0.291667
0.312500
0.366667
0.366667
0.375000
0.375000
0.358333
0.345833
0.375000
0.379167
2.004167
0.458333
0.354167
0.295833
0.312500
0.345833
0.325000
0.329167
0.325000
0.395833
0.358333
1.845833
0.504167
1.370833
0.958333
0.929167
0.966667
0.895833
0.808333
0.820833
0.808333
0.812500
0.425000
1.145833
0.720833
0.837500
0.662500
1.445833
0.779167
0.675000
0.612500
0.416667
1.033333
1.054167
0.966667
0.950000
0.929167
0.895833
0.866667
0.862500
0.741667
0.770833
0.833333
1.258333
0.737500
0.687500
0.458333
0.375000
1.754167
1.825000
0.770833
0.433333
1.200000
0.758333
0.675000
0.750000
0.629167
0.583333
0.387500
0.337500
0.329167
0.312500
0.325000
0.383333
0.383333
0.345833
0.312500
0.300000
0.345833
0.329167
0.245833
0.345833
0.408333
0.420833
0.366667
0.366667
0.362500
0.529167
0.370833
0.304167
0.333333
0.354167
0.354167
0.595833
1.358333
0.750000
0.587500
0.612500
0.720833
0.679167
0.579167
0.608333
0.566667
0.575000
0.820833
0.795833
0.541667
0.650000
0.608333
0.604167
0.700000
0.562500
0.441667
0.362500
0.337500
0.333333
0.341667
0.333333
0.345833
0.337500
0.320833
0.325000
0.375000
0.366667
0.358333
0.333333
0.333333
0.345833
0.333333
0.329167
0.333333
0.320833
0.320833
0.345833
0.337500
0.337500
0.350000
0.370833
0.366667
0.354167
0.350000
0.333333
0.350000
0.333333
0.391667
0.350000
0.325000
0.333333
0.333333
0.329167
0.337500
0.329167
0.333333
0.337500
0.345833
0.337500
0.337500
0.350000
0.345833
0.337500
0.333333
0.320833
0.325000
0.345833
0.375000
0.412500
0.391667
0.391667
0.475000
0.345833
0.291667
0.295833
0.325000
0.366667
0.350000
0.366667
0.366667
0.333333
0.383333
0.370833
0.329167
0.325000
0.312500
0.362500
0.375000
0.337500
0.320833
0.316667
0.329167
0.333333
0.320833
0.329167
0.341667
0.333333
0.329167
0.329167
0.337500
0.358333
0.325000
0.320833
0.383333
0.362500
0.325000
0.312500
0.329167
0.341667
0.337500
0.329167
0.325000
0.341667
0.337500
0.345833
0.400000
0.350000
0.379167
0.387500
0.358333
0.316667
0.287500
0.291667
0.316667
0.325000
0.350000
0.383333
0.354167
0.345833
0.337500
0.320833
0.312500
0.329167
0.337500
0.316667
0.316667
0.333333
0.316667
0.316667
0.345833
0.454167
0.416667
0.437500
0.354167
0.412500
0.437500
0.333333
0.316667
0.329167
0.341667
0.341667
0.333333
0.379167
0.404167
0.354167
0.433333
0.350000
0.325000
0.320833
0.333333
0.325000
0.316667
0.320833
0.329167
0.329167
0.329167
0.329167
0.350000
0.358333
0.345833
0.337500
0.333333
0.333333
0.333333
0.320833
0.325000
0.333333
0.329167
0.341667
0.354167
0.341667
0.329167
0.333333
0.341667
0.325000
0.333333
0.329167
0.329167
0.333333
0.329167
0.325000
0.329167
0.329167
0.325000
0.325000
0.312500
0.320833
0.383333
0.358333
0.345833
0.362500
0.341667
0.329167
0.316667
0.325000
0.320833
0.320833
0.320833
0.316667
0.312500
0.316667
0.320833
0.316667
0.337500
0.345833
0.325000
0.329167
0.420833
0.375000
0.341667
0.333333
0.312500
0.312500
0.358333
0.341667
0.375000
0.358333
0.337500
0.400000
0.366667
0.329167
0.337500
0.333333
0.325000
0.316667
0.325000
0.325000
0.325000
0.329167
0.350000
0.341667
0.333333
0.337500
0.333333
0.333333
0.341667
0.362500
0.358333
0.337500
0.333333
0.337500
0.345833
0.345833
0.341667
0.341667
0.320833
0.320833
0.345833
0.329167
0.333333
0.350000
0.337500
0.341667
0.341667
0.320833
0.337500
0.395833
0.441667
0.504167
0.391667
0.370833
0.391667
0.337500
0.325000
0.316667
0.337500
0.425000
0.583333
0.400000
0.337500
0.308333
0.304167
0.308333
0.320833
0.341667
0.329167
0.333333
0.333333
0.308333
0.333333
0.345833
0.320833
0.304167
0.345833
0.345833
0.337500
0.325000
0.300000
0.320833
0.325000
0.320833
0.325000
0.329167
0.383333
0.308333
0.383333
0.366667
0.375000
0.316667
0.275000
0.291667
0.320833
0.337500
0.325000
0.320833
0.341667
0.329167
0.320833
0.420833
0.362500
0.329167
0.316667
0.304167
0.312500
0.333333
0.333333
0.345833
0.366667
0.358333
0.350000
0.595833
0.362500
0.312500
0.312500
0.362500
0.350000
0.341667
0.333333
0.304167
0.329167
0.354167
0.333333
0.354167
0.354167
0.341667
0.341667
0.333333
0.304167
0.316667
0.337500
0.370833
0.329167
0.337500
0.341667
0.366667
0.350000
0.358333
0.354167
0.333333
0.333333
0.375000
0.345833
0.316667
0.300000
0.312500
0.366667
0.350000
0.420833
0.408333
0.337500
0.320833
0.379167
0.425000
0.379167
0.345833
0.325000
0.341667
0.375000
0.558333
0.375000
0.341667
0.366667
0.345833
0.325000
0.337500
0.220833
0.437500
0.341667
0.333333
0.329167
0.308333
0.304167
0.345833
0.316667
0.366667
0.383333
0.345833
0.325000
0.329167
0.383333
0.375000
0.345833
0.391667
0.491667
0.350000
0.345833
0.383333
0.350000
0.316667
0.304167
0.325000
0.429167
0.358333
0.333333
0.320833
0.312500
0.333333
0.354167
0.329167
0.333333
0.350000
0.345833
0.333333
0.320833
0.325000
0.325000
0.308333
0.329167
0.341667
0.325000
0.337500
0.325000
0.329167
0.341667
0.320833
0.358333
0.487500
0.366667
0.329167
0.350000
0.333333
0.333333
0.329167
0.316667
0.362500
0.345833
0.341667
0.325000
0.358333
0.354167
0.316667
0.312500
0.304167
0.308333
0.350000
0.341667
0.387500
0.366667
0.329167
0.300000
0.320833
0.345833
0.341667
0.370833
0.337500
0.333333
0.337500
0.350000
0.341667
0.325000
0.312500
0.325000
0.337500
0.337500
0.329167
0.300000
0.312500
0.337500
0.320833
0.329167
0.312500
0.312500
0.333333
0.329167
0.333333
0.333333
0.341667
0.329167
0.316667
0.320833
0.337500
0.370833
0.350000
0.341667
0.341667
0.333333
0.304167
0.283333
0.300000
0.320833
0.329167
0.295833
0.287500
0.337500
0.358333
0.383333
0.416667
0.354167
0.320833
0.312500
0.329167
0.345833
0.350000
0.350000
0.362500
0.341667
0.379167
0.358333
0.345833
0.541667
0.345833
0.300000
0.312500
0.291667
0.304167
0.379167
0.358333
0.354167
0.337500
0.325000
0.329167
0.366667
0.354167
0.333333
0.337500
0.333333
0.341667
0.341667
0.337500
0.337500
0.312500
0.333333
0.329167
0.337500
0.354167
0.354167
0.337500
0.345833
0.333333
0.312500
0.341667
0.320833
0.312500
0.337500
0.341667
0.366667
0.370833
0.329167
0.341667
0.345833
0.341667
0.329167
0.312500
0.312500
0.354167
0.408333
0.341667
0.291667
0.312500
0.333333
0.325000
0.325000
0.337500
0.337500
0.212500
0.425000
0.345833
0.337500
0.337500
0.350000
0.350000
0.337500
0.300000
0.320833
0.383333
0.362500
0.325000
0.320833
0.320833
0.329167
0.312500
0.333333
0.350000
0.337500
0.341667
0.337500
0.329167
0.325000
0.337500
0.333333
0.362500
0.487500
0.354167
0.329167
0.337500
0.337500
0.337500
0.329167
0.312500
0.325000
0.345833
0.375000
0.429167
0.491667
0.354167
0.350000
0.337500
0.316667
0.312500
0.316667
0.325000
0.337500
0.337500
0.337500
0.433333
0.341667
0.333333
0.333333
0.345833
0.333333
0.325000
0.325000
0.325000
0.320833
0.320833
0.325000
0.304167
0.291667
0.333333
0.358333
0.308333
0.308333
0.345833
0.325000
0.341667
0.329167
0.316667
0.320833
0.308333
0.425000
0.512500
0.366667
0.370833
0.350000
0.320833
0.320833
0.325000
0.316667
0.325000
0.345833
0.329167
0.220833
0.433333
0.387500
0.362500
0.350000
0.329167
0.308333
0.341667
0.333333
0.320833
0.350000
0.329167
0.333333
0.483333
0.408333
0.350000
0.329167
0.337500
0.337500
0.325000
0.325000
0.308333
0.312500
0.350000
0.341667
0.341667
0.350000
0.329167
0.316667
0.312500
0.341667
0.362500
0.333333
0.304167
0.333333
0.345833
0.320833
0.308333
0.320833
0.316667
0.320833
0.337500
0.333333
0.329167
0.345833
0.341667
0.337500
0.412500
0.341667
0.341667
0.337500
0.350000
0.375000
0.333333
0.341667
0.395833
0.341667
0.316667
0.304167
0.350000
0.350000
0.325000
0.320833
0.341667
0.337500
0.329167
0.325000
0.316667
0.333333
0.370833
0.358333
0.420833
0.341667
0.329167
0.333333
0.325000
0.325000
0.325000
0.329167
0.362500
0.354167
0.333333
0.354167
0.350000
0.308333
0.312500
0.316667
0.308333
0.320833
0.304167
0.329167
0.337500
0.341667
0.379167
0.337500
0.333333
0.316667
0.308333
0.329167
0.333333
0.333333
0.325000
0.333333
0.329167
0.375000
0.366667
0.329167
0.304167
0.308333
0.316667
0.320833
0.325000
0.337500
0.345833
0.350000
0.345833
0.425000
0.416667
0.358333
0.329167
0.316667
0.325000
0.333333
0.341667
0.383333
0.345833
0.333333
0.362500
0.362500
0.337500
0.383333
0.350000
0.358333
0.420833
0.341667
0.329167
0.375000
0.358333
0.337500
0.325000
0.325000
0.337500
0.333333
0.320833
0.320833
0.341667
0.333333
0.333333
0.345833
0.341667
0.337500
0.354167
0.354167
0.337500
0.337500
0.350000
0.341667
0.337500
0.337500
0.333333
0.383333
0.366667
0.333333
0.312500
0.320833
0.333333
0.333333
0.316667
0.325000
0.325000
0.333333
0.329167
0.333333
0.337500
0.337500
0.333333
0.333333
0.354167
0.345833
0.379167
0.370833
0.329167
0.333333
0.487500
0.462500
0.337500
0.304167
0.329167
0.337500
0.345833
0.420833
0.350000
0.329167
0.320833
0.316667
0.329167
0.400000
0.350000
0.333333
0.341667
0.333333
0.341667
0.354167
0.337500
0.337500
0.337500
0.337500
0.333333
0.329167
0.333333
0.333333
0.333333
0.366667
0.375000
0.333333
0.337500
0.337500
0.333333
0.337500
0.316667
0.320833
0.366667
0.337500
0.337500
0.329167
0.337500
0.341667
0.337500
0.354167
0.425000
0.320833
0.320833
0.345833
0.354167
0.362500
0.333333
0.395833
0.433333
0.387500
0.350000
0.333333
0.345833
0.329167
0.308333
0.316667
0.341667
0.333333
0.320833
0.341667
0.337500
0.333333
0.358333
0.358333
0.350000
0.333333
0.316667
0.300000
0.320833
0.354167
0.337500
0.337500
0.337500
0.366667
0.345833
0.320833
0.308333
0.329167
0.341667
0.333333
0.341667
0.337500
0.333333
0.325000
0.366667
0.379167
0.341667
0.358333
0.329167
0.337500
0.345833
0.329167
0.337500
0.333333
0.325000
0.316667
0.320833
0.333333
0.325000
0.337500
0.308333
0.316667
0.341667
0.337500
0.337500
0.337500
0.391667
0.387500
0.337500
0.333333
0.354167
0.345833
0.345833
0.337500
0.354167
0.362500
0.345833
0.329167
0.337500
0.341667
0.316667
0.316667
0.333333
0.333333
0.341667
0.412500
0.345833
0.325000
0.383333
0.341667
0.366667
0.325000
0.320833
0.325000
0.329167
0.341667
0.333333
0.333333
0.325000
0.375000
0.350000
0.333333
0.345833
0.333333
0.375000
0.354167
0.329167
0.337500
0.333333
0.345833
0.337500
0.325000
0.308333
0.316667
0.329167
0.337500
0.329167
0.325000
0.341667
0.362500
0.345833
0.341667
0.354167
0.337500
0.350000
0.358333
0.345833
0.350000
0.333333
0.400000
0.366667
0.333333
0.325000
0.312500
0.329167
0.333333
0.329167
0.329167
0.354167
0.354167
0.329167
0.329167
0.350000
0.358333
0.337500
0.329167
0.329167
0.320833
0.329167
0.329167
0.325000
0.329167
0.337500
0.316667
0.333333
0.341667
0.329167
0.391667
0.362500
0.333333
0.333333
0.337500
0.316667
0.329167
0.325000
0.320833
0.341667
0.325000
0.320833
0.329167
0.216667
0.412500
0.366667
0.337500
0.333333
0.362500
0.333333
0.325000
0.329167
0.329167
0.320833
0.345833
0.316667
0.350000
0.354167
0.333333
0.316667
0.358333
0.350000
0.333333
0.329167
0.333333
0.345833
0.337500
0.333333
0.325000
0.337500
0.358333
0.375000
0.312500
0.320833
0.333333
0.312500
0.404167
0.375000
0.333333
0.308333
0.308333
0.391667
0.350000
0.316667
0.300000
0.304167
0.325000
0.333333
0.329167
0.333333
0.333333
0.370833
0.341667
0.358333
0.383333
0.333333
0.341667
0.329167
0.308333
0.337500
0.341667
0.329167
0.354167
0.341667
0.329167
0.329167
0.316667
0.333333
0.325000
0.391667
0.345833
0.333333
0.333333
0.333333
0.312500
0.312500
0.304167
0.425000
0.379167
0.458333
0.350000
0.325000
0.312500
0.279167
0.329167
0.333333
0.320833
0.341667
0.408333
0.358333
0.333333
0.333333
0.304167
0.291667
0.358333
0.337500
0.333333
0.329167
0.325000
0.320833
0.341667
0.325000
0.316667
0.320833
0.358333
0.487500
0.350000
0.345833
0.350000
0.329167
0.316667
0.308333
0.312500
0.329167
0.320833
0.345833
0.341667
0.350000
0.333333
0.325000
0.333333
0.341667
0.362500
0.329167
0.345833
0.400000
0.325000
0.300000
0.295833
0.537500
0.333333
0.354167
0.341667
0.337500
0.300000
0.316667
0.354167
0.295833
0.333333
0.316667
0.333333
0.337500
0.366667
0.345833
0.320833
0.304167
0.316667
0.337500
0.354167
0.316667
0.345833
0.425000
0.404167
0.420833
0.337500
0.320833
0.312500
0.316667
0.329167
0.333333
0.345833
0.345833
0.337500
0.354167
0.333333
0.329167
0.341667
0.350000
0.345833
0.350000
0.350000
0.308333
0.291667
0.333333
0.216667
0.416667
0.337500
0.325000
0.325000
0.329167
0.362500
0.350000
0.370833
0.345833
0.491667
0.350000
0.275000
0.333333
0.504167
0.354167
0.304167
0.308333
0.337500
0.333333
0.325000
0.320833
0.316667
0.333333
0.341667
0.400000
0.375000
0.333333
0.333333
0.366667
0.333333
0.362500
0.379167
0.341667
0.387500
0.350000
0.341667
0.325000
0.325000
0.325000
0.312500
0.329167
0.350000
0.604167
0.370833
0.362500
0.341667
0.354167
0.375000
0.370833
0.345833
0.337500
0.337500
0.329167
0.320833
0.325000
0.320833
0.320833
0.337500
0.354167
0.366667
0.345833
0.316667
0.391667
0.358333
0.325000
0.329167
0.370833
0.412500
0.358333
0.329167
0.325000
0.316667
0.366667
0.383333
0.341667
0.333333
0.320833
0.304167
0.312500
0.329167
0.395833
0.345833
0.345833
0.404167
0.341667
0.308333
0.312500
0.325000
0.329167
0.312500
0.425000
0.345833
0.516667
0.495833
0.366667
0.329167
0.308333
0.329167
0.341667
0.337500
0.337500
0.329167
0.337500
0.333333
0.325000
0.320833
0.308333
0.329167
0.479167
0.354167
0.437500
0.408333
0.341667
0.329167
0.337500
0.337500
0.337500
0.316667
0.333333
0.354167
0.375000
0.354167
0.350000
0.333333
0.387500
0.366667
0.341667
0.341667
0.333333
0.316667
0.308333
0.316667
0.345833
0.341667
0.341667
0.341667
0.341667
0.433333
0.379167
0.320833
0.295833
0.304167
0.312500
0.333333
0.337500
0.320833
0.312500
0.320833
0.350000
0.404167
0.383333
0.354167
0.300000
0.320833
0.350000
0.216667
0.437500
0.316667
0.354167
0.345833
0.337500
0.320833
0.345833
0.329167
0.341667
0.358333
0.404167
0.379167
0.312500
0.279167
0.333333
0.337500
0.345833
0.345833
0.383333
0.512500
0.341667
0.316667
0.412500
0.362500
0.358333
0.220833
0.412500
0.362500
0.316667
0.300000
0.283333
0.295833
0.325000
0.212500
0.429167
0.350000
0.337500
0.333333
0.350000
0.350000
0.333333
0.333333
0.325000
0.316667
0.350000
0.354167
0.350000
0.350000
0.337500
0.383333
0.362500
0.325000
0.312500
0.316667
0.354167
0.362500
0.329167
0.366667
1.395833
1.562500
1.141667
0.825000
0.770833
0.858333
0.829167
0.991667
0.837500
0.900000
0.879167
0.866667
0.858333
0.837500
0.820833
0.720833
0.704167
1.241667
0.808333
0.720833
0.704167
1.233333
0.800000
0.695833
0.733333
1.283333
0.875000
0.845833
