0.562500
0.558333
0.566667
0.558333
0.558333
0.558333
0.558333
0.562500
0.562500
0.558333
0.558333
0.558333
0.558333
0.566667
0.558333
0.554167
0.558333
0.558333
0.562500
0.558333
0.558333
0.554167
0.533333
0.583333
0.566667
0.554167
0.237500
0.320833
0.295833
0.258333
0.558333
0.233333
0.329167
0.450000
0.095833
0.362500
0.195833
0.562500
0.529167
0.587500
0.558333
0.554167
0.558333
0.562500
0.566667
0.554167
0.558333
0.558333
0.562500
0.566667
0.558333
0.558333
0.558333
0.558333
0.566667
0.558333
0.558333
0.558333
0.558333
0.562500
0.562500
0.545833
0.291667
0.829167
0.558333
0.245833
0.312500
0.554167
0.558333
0.558333
0.558333
0.562500
0.558333
0.558333
0.554167
0.558333
0.558333
0.562500
0.558333
0.554167
0.558333
0.558333
0.558333
0.566667
0.554167
0.558333
0.558333
0.562500
0.562500
0.566667
0.558333
0.558333
0.562500
0.562500
0.566667
0.562500
0.558333
0.562500
0.558333
0.566667
0.566667
0.562500
0.558333
0.562500
0.562500
0.562500
0.566667
0.562500
0.558333
0.562500
0.562500
0.566667
0.566667
0.558333
0.562500
0.562500
0.383333
0.750000
0.566667
0.562500
0.562500
0.562500
0.566667
0.570833
0.562500
0.562500
0.566667
0.562500
0.566667
0.570833
0.562500
0.562500
0.562500
0.562500
0.570833
0.562500
0.558333
0.562500
0.558333
0.562500
0.566667
0.566667
0.558333
0.558333
0.562500
0.562500
0.566667
0.566667
0.558333
0.562500
0.562500
0.562500
0.566667
0.562500
0.558333
0.558333
0.562500
0.566667
0.562500
0.562500
0.558333
0.558333
0.562500
0.562500
0.570833
0.558333
0.558333
0.558333
0.562500
0.562500
0.570833
0.566667
0.558333
0.562500
0.562500
0.562500
0.562500
0.570833
0.558333
0.562500
0.562500
0.562500
0.562500
0.566667
0.562500
0.562500
0.558333
0.562500
0.562500
0.566667
0.570833
0.562500
0.562500
0.562500
0.566667
0.570833
0.558333
0.575000
0.583333
0.583333
0.479167
0.095833
0.404167
0.245833
0.300000
0.587500
0.425000
0.370833
0.408333
0.254167
0.258333
0.304167
0.341667
0.350000
0.362500
0.316667
0.350000
0.312500
0.345833
0.375000
0.325000
0.512500
0.229167
0.258333
0.400000
0.254167
0.641667
0.591667
0.533333
0.645833
0.566667
0.579167
0.575000
0.704167
0.445833
0.579167
0.570833
0.566667
0.562500
0.566667
0.566667
0.570833
0.566667
0.562500
0.558333
0.566667
0.566667
0.566667
0.558333
0.558333
0.562500
0.562500
0.562500
0.558333
0.554167
0.562500
0.566667
0.770833
0.429167
0.470833
0.562500
0.562500
0.562500
0.566667
0.562500
0.558333
0.562500
0.566667
0.562500
0.562500
0.562500
0.558333
0.558333
0.658333
0.345833
0.458333
0.275000
0.262500
0.241667
0.554167
0.666667
0.329167
0.258333
0.420833
0.354167
0.204167
0.487500
0.333333
0.850000
0.558333
0.562500
0.550000
0.554167
0.558333
0.554167
0.554167
0.550000
0.779167
0.062500
0.258333
0.208333
0.362500
0.704167
0.395833
0.362500
0.362500
0.395833
0.437500
0.291667
0.391667
0.562500
0.566667
0.554167
0.562500
0.562500
0.554167
0.554167
0.562500
0.554167
0.554167
0.558333
0.558333
0.550000
0.550000
0.387500
0.225000
0.495833
0.558333
0.608333
0.295833
0.208333
0.308333
0.391667
0.425000
0.312500
0.250000
0.558333
0.562500
0.558333
0.554167
0.554167
0.562500
0.550000
0.554167
0.554167
0.554167
0.400000
0.254167
0.450000
0.891667
0.204167
0.433333
0.504167
0.720833
0.541667
0.550000
0.412500
0.658333
0.575000
0.545833
0.550000
0.554167
0.545833
0.550000
0.545833
0.554167
0.545833
0.483333
0.466667
0.145833
0.550000
0.545833
0.541667
0.550000
0.550000
0.545833
0.545833
0.541667
0.550000
0.545833
0.825000
0.191667
0.804167
0.195833
0.629167
0.233333
0.400000
0.262500
0.575000
0.325000
0.516667
0.829167
0.462500
0.833333
0.404167
0.904167
0.287500
0.525000
0.241667
0.350000
0.208333
0.337500
0.550000
0.395833
0.441667
0.437500
0.416667
0.491667
0.291667
0.091667
0.383333
0.316667
0.395833
0.533333
0.204167
0.654167
0.933333
1.087500
1.075000
0.775000
0.275000
0.591667
0.520833
0.583333
0.550000
0.554167
0.554167
0.558333
0.550000
0.550000
0.550000
0.558333
0.550000
0.545833
0.550000
0.554167
0.558333
0.545833
0.550000
0.554167
0.554167
0.550000
0.550000
0.550000
0.554167
0.554167
0.550000
0.550000
0.550000
0.550000
0.558333
0.550000
0.550000
0.550000
0.554167
0.558333
0.550000
0.545833
0.554167
0.550000
0.558333
0.550000
0.550000
0.550000
0.558333
0.554167
0.550000
0.558333
0.562500
0.562500
0.570833
0.566667
0.566667
0.570833
0.583333
0.591667
0.579167
0.583333
0.587500
0.595833
0.587500
0.583333
0.591667
0.604167
0.220833
0.445833
0.829167
0.529167
0.345833
0.341667
0.212500
0.191667
0.437500
0.575000
0.579167
0.650000
0.254167
0.241667
0.566667
0.562500
0.395833
0.362500
0.233333
0.416667
0.525000
0.345833
0.558333
0.425000
0.204167
0.491667
0.429167
0.212500
0.300000
0.254167
0.470833
0.212500
0.608333
0.295833
0.466667
0.637500
0.050000
0.254167
0.250000
1.100000
0.666667
1.000000
1.108333
0.558333
0.554167
0.562500
0.558333
0.566667
0.558333
0.562500
0.566667
0.575000
0.570833
0.570833
0.575000
0.583333
0.583333
0.579167
0.583333
0.587500
0.583333
0.579167
0.579167
0.583333
0.579167
0.570833
0.570833
0.575000
0.566667
0.566667
0.504167
0.625000
0.558333
0.554167
0.558333
0.558333
0.554167
0.554167
0.550000
0.550000
0.558333
0.550000
0.550000
0.545833
0.554167
0.558333
0.550000
0.545833
0.550000
0.554167
0.554167
0.545833
0.550000
0.545833
0.550000
0.554167
0.550000
0.550000
0.545833
0.550000
0.550000
0.554167
0.550000
0.545833
0.550000
0.554167
0.554167
0.550000
0.545833
0.550000
0.304167
0.250000
0.558333
0.545833
0.550000
0.554167
0.554167
0.554167
0.550000
0.550000
0.550000
0.558333
0.554167
0.550000
0.554167
0.554167
0.554167
0.554167
0.550000
0.554167
0.554167
0.425000
0.675000
0.550000
0.554167
0.554167
0.550000
0.545833
0.550000
0.204167
0.350000
0.554167
0.550000
0.545833
0.550000
0.554167
0.554167
0.550000
0.550000
0.554167
0.554167
0.550000
0.554167
0.545833
0.554167
0.554167
0.558333
0.550000
0.545833
0.554167
0.550000
0.558333
0.550000
0.545833
0.550000
0.554167
0.554167
0.550000
0.545833
0.550000
0.550000
0.554167
0.550000
0.545833
0.550000
0.550000
0.550000
0.554167
0.550000
0.550000
0.550000
0.550000
0.554167
0.545833
0.545833
0.550000
0.550000
0.554167
0.545833
0.550000
0.550000
0.550000
0.558333
0.550000
0.550000
0.550000
0.550000
0.558333
0.550000
0.545833
0.554167
0.550000
0.554167
0.550000
0.550000
0.550000
0.550000
0.550000
0.558333
0.550000
0.550000
0.545833
0.554167
0.554167
0.545833
0.554167
0.554167
0.554167
0.554167
0.575000
0.570833
0.354167
0.779167
0.566667
0.570833
0.575000
0.562500
0.562500
0.570833
0.570833
0.562500
0.562500
0.562500
0.558333
0.579167
0.558333
0.562500
0.562500
0.566667
0.562500
0.554167
0.558333
0.562500
0.562500
0.562500
0.558333
0.554167
0.554167
0.558333
0.558333
0.554167
0.554167
0.554167
0.558333
0.558333
0.554167
0.554167
0.554167
0.558333
0.554167
0.554167
0.558333
0.558333
0.558333
0.558333
0.550000
0.558333
0.558333
0.558333
0.550000
0.695833
0.470833
0.304167
0.775000
0.566667
0.566667
0.562500
0.558333
0.562500
0.566667
0.558333
0.558333
0.562500
0.562500
0.562500
0.558333
0.554167
0.558333
0.562500
0.562500
0.554167
0.554167
0.558333
0.558333
0.558333
0.554167
0.554167
0.554167
0.558333
0.558333
0.550000
0.554167
0.558333
0.558333
0.554167
0.550000
0.554167
0.558333
0.558333
0.554167
0.550000
0.554167
0.554167
0.558333
0.550000
0.550000
0.554167
0.562500
0.545833
0.554167
0.562500
0.141667
0.420833
0.562500
0.562500
0.562500
0.562500
0.566667
0.554167
0.558333
0.562500
0.558333
0.566667
0.554167
0.554167
0.554167
0.562500
0.558333
0.558333
0.554167
0.550000
0.558333
0.558333
0.554167
0.554167
0.554167
0.558333
0.558333
0.554167
0.554167
0.412500
0.829167
0.112500
0.866667
0.558333
0.558333
0.554167
0.550000
0.554167
0.558333
0.554167
0.550000
0.554167
0.554167
0.558333
0.554167
0.554167
0.550000
0.558333
0.558333
0.554167
0.550000
0.558333
0.558333
0.550000
0.554167
0.550000
0.558333
0.554167
0.550000
0.550000
0.554167
0.562500
0.550000
0.554167
0.554167
0.562500
0.554167
0.554167
0.554167
0.562500
0.550000
0.554167
0.554167
0.562500
0.550000
0.554167
0.554167
0.562500
0.558333
0.550000
0.554167
0.554167
0.562500
0.550000
0.554167
0.554167
0.558333
0.554167
0.554167
0.554167
0.558333
0.558333
0.554167
0.550000
0.558333
0.558333
0.550000
0.554167
0.554167
0.554167
0.562500
0.554167
0.554167
0.554167
0.562500
0.558333
0.554167
0.554167
0.558333
0.562500
0.558333
0.554167
0.558333
0.562500
0.558333
0.554167
0.558333
0.562500
0.562500
0.554167
0.558333
0.558333
0.566667
0.554167
0.554167
0.558333
0.566667
0.554167
0.554167
0.558333
0.562500
0.558333
0.558333
0.554167
0.558333
0.566667
0.554167
0.554167
0.558333
0.562500
0.554167
0.558333
0.558333
0.558333
0.562500
0.554167
0.562500
0.554167
0.562500
0.566667
0.554167
0.558333
0.558333
0.562500
0.566667
0.558333
0.554167
0.558333
0.562500
0.558333
0.554167
0.558333
0.558333
0.566667
0.554167
0.558333
0.558333
0.558333
0.566667
0.558333
0.554167
0.562500
0.554167
0.558333
0.562500
0.566667
0.558333
0.554167
0.558333
0.562500
0.562500
0.558333
0.558333
0.558333
0.558333
0.566667
0.558333
0.554167
0.562500
0.562500
0.554167
0.558333
0.554167
0.558333
0.566667
0.554167
0.558333
0.558333
0.562500
0.558333
0.554167
0.558333
0.558333
0.562500
0.554167
0.558333
0.554167
0.558333
0.562500
0.558333
0.554167
0.558333
0.566667
0.558333
0.558333
0.558333
0.562500
0.562500
0.562500
0.558333
0.558333
0.570833
0.558333
0.558333
0.562500
0.562500
0.566667
0.558333
0.558333
0.562500
0.562500
0.566667
0.558333
0.558333
0.558333
0.562500
0.562500
0.562500
0.558333
0.562500
0.558333
0.566667
0.554167
0.558333
0.562500
0.566667
0.558333
0.562500
0.558333
0.562500
0.570833
0.562500
0.562500
0.558333
0.566667
0.570833
0.562500
0.562500
0.566667
0.570833
0.558333
0.562500
0.566667
0.570833
0.558333
0.562500
0.566667
0.566667
0.558333
0.562500
0.562500
0.570833
0.558333
0.558333
0.562500
0.562500
0.566667
0.558333
0.558333
0.566667
0.562500
0.558333
0.566667
0.554167
0.558333
0.562500
0.558333
0.558333
0.558333
0.558333
0.566667
0.220833
0.675000
0.212500
0.179167
0.375000
0.562500
0.558333
0.212500
0.350000
0.558333
0.554167
0.558333
0.562500
0.562500
0.558333
0.554167
0.562500
0.562500
0.362500
0.650000
0.650000
0.583333
0.570833
0.575000
0.579167
0.570833
0.566667
0.575000
0.575000
0.570833
0.570833
0.575000
0.566667
0.566667
0.562500
0.570833
0.575000
0.562500
0.562500
0.566667
0.575000
0.562500
0.558333
0.566667
0.566667
0.562500
0.558333
0.558333
0.566667
0.562500
0.558333
0.558333
0.562500
0.558333
0.554167
0.558333
0.566667
0.554167
0.554167
0.554167
0.562500
0.562500
0.554167
0.554167
0.558333
0.566667
0.554167
0.554167
0.558333
0.562500
