0.529167
0.537500
0.529167
0.529167
0.533333
0.533333
0.529167
0.529167
0.533333
0.533333
0.529167
0.529167
0.541667
0.541667
0.533333
0.537500
0.541667
0.541667
0.550000
0.550000
0.550000
0.537500
0.545833
0.541667
0.666667
0.329167
0.650000
0.558333
0.545833
0.550000
0.554167
0.545833
0.550000
0.545833
0.545833
0.545833
0.541667
0.541667
0.550000
0.537500
0.541667
0.545833
0.537500
0.541667
0.537500
0.533333
0.533333
0.316667
0.237500
0.375000
0.712500
0.537500
0.541667
0.545833
0.545833
0.545833
0.541667
0.545833
0.545833
0.537500
0.537500
0.537500
0.533333
0.537500
0.529167
0.529167
0.537500
0.541667
0.529167
0.533333
0.533333
0.541667
0.541667
0.550000
0.537500
0.550000
0.545833
0.550000
0.554167
0.545833
0.537500
0.533333
0.541667
0.541667
0.529167
0.537500
0.541667
0.541667
0.533333
0.408333
0.683333
0.550000
0.545833
0.533333
0.541667
0.545833
0.541667
0.541667
0.541667
0.545833
0.545833
0.541667
0.545833
0.554167
0.550000
0.550000
0.541667
0.541667
0.545833
0.545833
0.550000
0.558333
0.554167
0.550000
0.558333
0.562500
0.554167
0.558333
0.562500
0.554167
0.562500
0.587500
0.558333
0.566667
0.570833
0.562500
0.554167
0.558333
0.558333
0.562500
0.550000
0.550000
0.550000
0.562500
0.554167
0.545833
0.541667
0.550000
0.537500
0.550000
0.537500
0.537500
0.537500
0.537500
0.541667
0.537500
0.533333
0.533333
0.537500
0.533333
0.537500
0.541667
0.541667
0.550000
0.545833
0.558333
0.554167
0.566667
0.550000
0.554167
0.554167
0.554167
0.550000
0.545833
0.545833
0.554167
0.558333
0.558333
0.545833
0.550000
0.554167
0.554167
0.537500
0.233333
0.304167
0.695833
0.462500
0.566667
0.562500
0.550000
0.562500
0.570833
0.575000
0.562500
0.566667
0.566667
0.558333
0.562500
0.558333
0.562500
0.566667
0.558333
0.562500
0.550000
0.554167
0.554167
0.550000
0.545833
0.545833
0.541667
0.550000
0.550000
0.554167
0.558333
0.566667
0.558333
0.562500
0.566667
0.579167
0.558333
0.562500
0.570833
0.570833
0.566667
0.558333
0.570833
0.579167
0.566667
0.570833
0.566667
0.562500
0.566667
0.566667
0.570833
0.570833
0.570833
0.562500
0.575000
0.579167
0.595833
0.600000
0.570833
0.583333
0.575000
0.570833
0.570833
0.566667
0.575000
0.562500
0.575000
0.566667
0.566667
0.570833
0.575000
0.575000
0.570833
0.566667
0.579167
0.570833
0.575000
0.566667
0.570833
0.566667
0.570833
0.575000
0.570833
0.575000
0.570833
0.558333
0.570833
0.566667
0.575000
0.570833
0.579167
0.566667
0.575000
0.575000
0.575000
0.575000
0.575000
0.558333
0.570833
0.562500
0.566667
0.575000
0.583333
0.566667
0.579167
0.579167
0.587500
0.579167
0.575000
0.566667
0.566667
0.575000
0.579167
0.579167
0.566667
0.591667
0.587500
0.587500
0.579167
0.583333
0.570833
0.583333
0.579167
0.587500
0.595833
0.587500
0.587500
0.587500
0.608333
0.600000
0.600000
0.595833
0.591667
0.595833
0.604167
0.591667
0.591667
0.591667
0.591667
0.616667
0.612500
0.608333
0.600000
0.595833
0.587500
0.595833
0.600000
0.604167
0.604167
0.595833
0.620833
0.612500
0.608333
0.612500
0.595833
0.600000
0.608333
0.604167
0.608333
0.608333
0.600000
0.600000
0.616667
0.608333
0.608333
0.600000
0.604167
0.608333
0.608333
0.604167
0.612500
0.591667
0.604167
0.600000
0.608333
0.600000
0.620833
0.612500
0.612500
0.608333
0.633333
0.620833
0.625000
0.608333
0.612500
0.616667
0.608333
0.600000
0.595833
0.591667
0.604167
0.595833
0.612500
0.604167
0.604167
0.595833
0.600000
0.620833
0.612500
0.612500
0.604167
0.600000
0.604167
0.595833
0.408333
0.220833
0.558333
0.583333
0.583333
0.583333
0.575000
0.579167
0.575000
0.579167
0.579167
0.637500
0.533333
0.583333
0.579167
0.566667
0.575000
0.579167
0.575000
0.570833
0.583333
0.579167
0.570833
0.570833
0.570833
0.566667
0.750000
0.391667
0.570833
0.566667
0.562500
0.554167
0.554167
0.550000
0.550000
0.554167
1.095833
0.550000
0.445833
0.104167
0.225000
0.337500
0.187500
0.375000
0.558333
0.450000
0.400000
0.266667
0.537500
0.554167
0.554167
0.554167
0.550000
0.545833
1.095833
0.541667
0.550000
0.554167
0.558333
0.558333
0.554167
0.550000
0.554167
0.554167
0.562500
0.212500
0.329167
0.212500
0.337500
0.558333
0.550000
0.545833
0.558333
0.554167
0.554167
0.541667
0.545833
0.545833
0.545833
0.541667
0.537500
0.545833
0.537500
0.545833
0.545833
0.700000
0.383333
0.537500
0.537500
0.558333
0.541667
0.550000
0.550000
0.554167
0.541667
0.545833
0.562500
0.554167
0.554167
0.554167
0.554167
0.558333
0.558333
0.545833
0.495833
0.608333
0.558333
0.550000
0.545833
0.550000
0.541667
0.533333
0.541667
0.537500
0.545833
0.537500
0.541667
0.562500
0.566667
0.575000
0.554167
0.558333
0.562500
0.566667
0.562500
0.558333
0.562500
0.558333
0.570833
0.570833
0.550000
0.558333
0.554167
0.333333
0.470833
0.316667
0.554167
0.554167
0.554167
0.545833
0.545833
0.445833
0.350000
0.300000
0.204167
0.875000
0.537500
0.537500
0.529167
0.258333
0.450000
0.358333
0.537500
0.545833
0.529167
0.533333
0.537500
0.545833
0.537500
0.541667
0.541667
0.541667
0.554167
0.545833
1.091667
0.541667
0.550000
0.537500
0.541667
0.545833
0.537500
0.545833
0.529167
0.533333
0.537500
0.537500
0.533333
0.537500
0.529167
0.533333
0.533333
0.762500
0.300000
0.520833
0.387500
0.658333
0.525000
0.529167
0.070833
0.458333
0.533333
0.541667
0.529167
0.525000
0.525000
0.529167
0.420833
0.104167
0.525000
0.520833
0.525000
0.516667
0.520833
0.516667
0.525000
0.512500
0.516667
0.529167
0.416667
0.125000
1.066667
0.541667
0.533333
0.537500
0.529167
0.533333
0.537500
0.533333
0.537500
0.533333
0.404167
0.600000
0.695833
0.204167
0.216667
0.645833
0.391667
0.520833
0.533333
0.529167
0.533333
0.529167
0.529167
0.529167
0.537500
0.529167
0.525000
0.525000
0.525000
0.233333
0.812500
0.520833
0.537500
0.454167
0.408333
0.725000
0.529167
0.629167
0.458333
0.487500
0.525000
0.520833
0.525000
0.516667
0.541667
0.550000
0.545833
0.541667
0.545833
0.533333
0.529167
0.525000
0.525000
0.516667
0.516667
0.720833
0.829167
0.525000
0.516667
0.525000
0.520833
0.520833
0.512500
0.520833
0.525000
0.462500
0.537500
0.545833
0.387500
0.333333
0.591667
0.258333
0.533333
0.545833
0.216667
0.341667
0.554167
0.554167
0.558333
0.554167
1.091667
0.166667
0.366667
0.533333
0.529167
0.516667
0.525000
0.525000
0.520833
0.516667
0.508333
0.516667
0.404167
0.420833
0.708333
0.512500
0.500000
0.804167
0.166667
0.533333
0.266667
0.366667
0.245833
0.616667
1.137500
0.345833
0.820833
0.491667
1.187500
1.008333
0.500000
0.504167
0.504167
0.495833
0.495833
0.495833
0.991667
0.495833
0.500000
0.495833
0.504167
0.995833
0.504167
0.508333
0.491667
0.500000
0.500000
0.500000
0.500000
0.987500
0.504167
0.495833
0.491667
0.233333
0.270833
0.495833
0.504167
0.495833
0.995833
0.500000
0.508333
0.504167
0.504167
0.500000
0.629167
0.379167
0.508333
1.000000
0.500000
0.554167
0.612500
0.329167
0.491667
0.495833
0.991667
0.495833
0.500000
0.691667
0.295833
0.495833
0.504167
1.000000
0.495833
0.504167
0.500000
0.495833
0.495833
0.500000
0.279167
0.225000
0.504167
0.500000
0.495833
0.504167
0.508333
0.504167
0.500000
0.491667
0.645833
0.400000
0.445833
0.637500
0.387500
0.500000
0.512500
0.508333
0.504167
0.504167
0.512500
1.012500
0.500000
0.500000
0.500000
0.495833
0.491667
0.495833
0.500000
0.491667
0.629167
0.683333
0.208333
0.362500
0.287500
0.208333
0.604167
0.491667
0.595833
0.204167
0.525000
0.662500
0.412500
0.579167
0.491667
0.979167
0.491667
0.491667
0.491667
0.491667
0.487500
0.495833
0.491667
0.979167
0.491667
0.900000
0.229167
0.825000
0.283333
0.729167
0.495833
0.495833
0.266667
0.225000
0.495833
0.991667
0.495833
0.562500
0.620833
0.295833
0.583333
0.233333
0.245833
0.495833
0.262500
0.329167
0.208333
0.700000
0.275000
0.604167
0.187500
0.312500
0.608333
0.229167
1.129167
0.983333
0.991667
0.491667
0.487500
0.495833
0.425000
0.558333
0.491667
0.487500
0.487500
0.491667
0.975000
0.487500
0.487500
0.495833
0.487500
0.491667
0.491667
0.770833
0.225000
0.591667
0.095833
0.300000
0.566667
0.437500
0.991667
0.495833
0.500000
0.500000
0.500000
0.495833
0.495833
0.325000
0.666667
0.495833
0.495833
0.495833
0.491667
0.504167
0.508333
0.220833
0.783333
0.641667
0.258333
1.075000
0.245833
0.258333
0.987500
0.991667
0.491667
0.979167
0.491667
0.491667
0.495833
0.441667
0.412500
0.608333
0.487500
0.975000
0.487500
0.975000
0.487500
0.491667
0.491667
0.350000
0.629167
0.491667
0.495833
0.483333
0.483333
0.495833
0.491667
0.487500
0.487500
0.487500
0.350000
0.125000
0.204167
0.779167
0.483333
0.487500
0.362500
0.650000
0.733333
0.558333
0.129167
0.329167
0.662500
1.470833
0.495833
0.983333
0.495833
0.495833
0.587500
0.125000
1.133333
0.395833
0.712500
0.470833
0.612500
0.112500
0.775000
0.483333
0.479167
0.525000
0.650000
0.275000
0.379167
0.670833
0.441667
0.979167
0.979167
0.979167
0.975000
1.475000
0.970833
0.487500
0.529167
0.295833
0.812500
0.404167
0.425000
0.550000
0.404167
0.475000
0.325000
0.366667
0.304167
0.604167
0.366667
0.175000
0.375000
0.437500
0.995833
0.483333
0.841667
1.120833
1.004167
1.008333
1.479167
0.500000
0.275000
0.225000
0.237500
1.250000
0.545833
0.475000
0.112500
0.358333
0.479167
0.420833
0.487500
0.445833
0.225000
0.254167
0.658333
0.491667
0.979167
0.995833
0.983333
0.979167
0.975000
0.495833
0.987500
0.387500
0.762500
1.325000
0.175000
0.816667
0.233333
0.558333
0.341667
0.525000
1.287500
0.979167
0.983333
0.987500
0.495833
1.470833
1.475000
0.504167
1.500000
0.508333
1.016667
0.504167
0.508333
1.004167
0.500000
0.495833
0.495833
0.608333
0.383333
0.491667
0.500000
0.508333
0.995833
0.504167
0.787500
0.495833
0.704167
0.983333
0.987500
1.466667
0.504167
0.500000
0.495833
0.500000
0.495833
0.991667
0.500000
0.495833
0.495833
0.491667
0.495833
0.500000
0.500000
0.491667
0.487500
0.504167
0.304167
0.070833
0.641667
0.504167
0.508333
0.520833
1.016667
0.512500
0.208333
0.658333
0.291667
0.366667
0.541667
1.050000
0.529167
0.533333
1.033333
0.475000
1.037500
0.504167
0.479167
0.970833
0.483333
0.491667
0.491667
0.650000
0.329167
0.500000
0.504167
0.495833
0.733333
0.262500
0.287500
0.491667
0.695833
0.491667
0.508333
0.500000
0.995833
0.504167
0.504167
0.987500
0.491667
0.504167
0.500000
0.495833
0.491667
0.500000
0.504167
0.504167
0.991667
0.508333
0.287500
0.225000
0.508333
0.495833
0.500000
0.508333
0.508333
0.500000
0.495833
0.504167
1.004167
0.500000
0.504167
0.512500
0.495833
0.500000
