0.945833
0.945833
0.925000
0.929167
0.933333
0.866667
0.916667
1.120833
1.108333
0.958333
0.937500
0.950000
0.941667
0.937500
0.933333
0.933333
0.470833
0.220833
0.616667
0.316667
0.654167
0.633333
0.745833
0.291667
0.500000
0.220833
1.066667
1.270833
1.012500
0.875000
1.191667
0.595833
0.229167
0.329167
0.420833
0.270833
0.470833
0.358333
0.341667
0.379167
0.654167
1.633333
1.020833
1.025000
0.475000
1.312500
1.000000
0.966667
0.966667
0.970833
0.958333
0.945833
0.954167
0.950000
0.941667
0.962500
0.937500
0.950000
0.933333
0.475000
0.341667
0.300000
0.316667
0.562500
0.275000
0.329167
0.333333
0.325000
0.391667
0.400000
0.366667
0.358333
0.354167
0.354167
0.354167
0.358333
0.358333
0.354167
0.358333
0.358333
0.354167
0.354167
0.341667
0.362500
0.379167
0.362500
0.358333
0.366667
0.358333
0.358333
0.362500
0.366667
0.362500
0.358333
0.362500
0.366667
0.362500
0.358333
0.370833
0.366667
0.362500
0.362500
0.362500
0.366667
0.370833
0.354167
0.370833
0.370833
0.366667
0.362500
0.370833
0.366667
0.366667
0.366667
0.370833
0.366667
0.366667
0.370833
0.370833
0.370833
0.366667
0.370833
0.370833
0.370833
0.370833
0.370833
0.370833
0.370833
0.375000
0.366667
0.370833
0.375000
0.366667
0.375000
0.379167
0.370833
0.370833
0.370833
0.375000
0.370833
0.370833
0.370833
0.375000
0.375000
0.366667
0.375000
0.370833
0.375000
0.375000
0.370833
0.366667
0.379167
0.375000
0.366667
0.366667
0.379167
0.379167
0.370833
0.366667
0.366667
0.370833
0.375000
0.375000
0.366667
0.370833
0.370833
0.370833
0.370833
0.366667
0.362500
0.375000
0.375000
0.370833
0.366667
0.366667
0.366667
0.370833
0.370833
0.366667
0.366667
0.370833
0.362500
0.366667
0.370833
0.362500
0.366667
0.366667
0.362500
0.370833
0.362500
0.366667
0.370833
0.366667
0.329167
0.379167
0.395833
0.350000
0.333333
0.387500
0.245833
0.550000
0.400000
0.370833
0.354167
0.391667
0.383333
0.333333
0.341667
0.350000
0.358333
0.375000
0.375000
0.375000
0.337500
0.333333
0.337500
0.333333
0.379167
0.495833
0.425000
1.379167
1.375000
1.079167
1.100000
0.850000
0.858333
0.900000
1.204167
0.904167
0.958333
1.129167
1.087500
0.983333
0.958333
0.962500
0.950000
0.945833
0.954167
0.941667
0.950000
0.945833
0.929167
0.850000
0.579167
0.208333
0.637500
0.308333
0.312500
0.354167
0.387500
0.362500
0.333333
0.320833
0.320833
0.883333
0.279167
0.370833
0.425000
0.383333
0.370833
0.354167
0.341667
0.375000
0.354167
0.333333
0.333333
0.354167
0.395833
0.587500
0.266667
0.337500
0.329167
0.358333
0.366667
0.608333
0.254167
0.325000
0.350000
0.354167
0.354167
0.345833
0.350000
0.362500
0.345833
0.329167
0.687500
0.383333
0.362500
0.358333
0.575000
0.279167
0.358333
0.354167
0.404167
0.379167
0.383333
0.362500
0.345833
0.345833
0.345833
0.350000
0.395833
0.383333
0.575000
0.229167
0.366667
0.454167
0.404167
0.358333
0.350000
0.345833
0.329167
0.333333
0.237500
0.537500
0.400000
0.350000
0.354167
0.362500
0.350000
0.795833
0.312500
0.370833
0.329167
0.320833
0.358333
0.358333
0.358333
0.341667
0.341667
0.370833
0.591667
0.241667
0.337500
0.370833
0.337500
0.325000
0.345833
0.366667
0.387500
0.608333
0.329167
0.575000
0.400000
0.400000
0.462500
0.395833
1.500000
1.191667
1.333333
1.041667
1.091667
1.254167
1.083333
0.958333
0.945833
0.937500
1.275000
1.087500
0.966667
0.954167
0.941667
0.925000
0.925000
0.891667
0.887500
0.929167
0.862500
1.166667
0.595833
0.233333
0.316667
0.529167
0.270833
0.333333
0.308333
0.329167
0.350000
0.354167
0.454167
0.412500
0.379167
0.350000
0.345833
0.350000
0.366667
0.391667
0.379167
0.350000
0.375000
0.366667
0.362500
0.345833
0.337500
0.366667
0.362500
0.562500
0.270833
0.345833
0.337500
0.370833
0.362500
0.354167
0.362500
0.383333
0.466667
0.387500
0.354167
0.383333
0.408333
0.358333
0.341667
0.362500
0.345833
0.345833
0.383333
0.366667
0.362500
0.370833
0.370833
0.345833
0.333333
0.350000
0.366667
0.358333
0.354167
0.408333
0.379167
0.345833
0.345833
0.345833
0.329167
0.358333
0.366667
0.400000
0.379167
0.350000
0.391667
0.391667
0.416667
0.404167
0.645833
0.579167
0.337500
0.366667
0.341667
0.391667
0.400000
0.366667
0.375000
0.379167
0.400000
0.370833
0.362500
0.375000
0.366667
0.379167
0.345833
0.408333
0.387500
0.420833
1.512500
1.900000
1.104167
1.345833
1.054167
1.383333
1.004167
0.941667
1.312500
0.975000
0.950000
0.950000
0.925000
0.995833
0.933333
0.875000
1.195833
0.595833
0.637500
0.658333
0.616667
0.608333
0.595833
1.925000
0.825000
0.820833
1.462500
0.841667
0.833333
0.716667
0.704167
0.800000
1.425000
1.045833
0.900000
0.745833
0.720833
0.687500
0.745833
0.783333
0.312500
0.358333
0.366667
1.570833
0.470833
0.362500
0.604167
1.258333
0.466667
0.358333
0.329167
0.362500
0.383333
0.350000
0.350000
0.358333
0.362500
0.358333
0.366667
0.362500
0.366667
0.362500
0.362500
0.362500
0.379167
0.370833
0.366667
0.366667
0.375000
0.366667
0.366667
0.366667
0.375000
0.370833
0.366667
0.366667
0.375000
0.366667
0.370833
0.375000
0.366667
0.366667
0.375000
0.366667
0.366667
0.370833
0.370833
0.366667
0.370833
0.370833
0.370833
0.366667
0.370833
0.370833
0.375000
0.366667
0.366667
0.375000
0.370833
0.370833
0.370833
0.370833
0.370833
0.366667
0.375000
0.370833
0.375000
0.366667
0.370833
0.375000
0.375000
0.366667
0.375000
0.375000
0.370833
0.370833
0.370833
0.370833
1.720833
0.470833
0.362500
0.333333
0.387500
0.387500
0.345833
0.333333
0.391667
0.400000
0.370833
0.391667
1.516667
1.050000
0.929167
1.329167
0.966667
0.966667
1.033333
0.933333
0.879167
0.975000
1.175000
0.600000
0.233333
0.379167
0.362500
0.341667
0.370833
0.362500
0.345833
0.350000
0.383333
0.366667
0.350000
0.341667
0.508333
0.983333
0.154167
0.441667
0.345833
0.387500
0.441667
0.441667
0.375000
0.350000
0.345833
0.366667
0.366667
0.341667
0.337500
0.345833
0.370833
0.425000
0.375000
0.354167
0.345833
0.329167
0.350000
0.383333
0.608333
0.270833
0.320833
0.312500
0.387500
0.370833
0.341667
0.345833
0.350000
0.241667
0.500000
0.391667
0.370833
0.370833
0.750000
1.354167
1.454167
1.008333
0.966667
1.033333
0.975000
1.266667
0.479167
0.391667
0.379167
1.337500
0.462500
0.379167
0.529167
0.258333
0.345833
0.370833
0.366667
0.366667
0.354167
0.329167
0.337500
0.337500
0.329167
0.341667
0.366667
0.395833
0.454167
0.366667
0.345833
0.370833
0.441667
0.429167
0.362500
0.350000
0.395833
0.366667
0.379167
0.387500
0.387500
0.404167
0.370833
0.387500
0.608333
0.141667
0.425000
0.404167
0.450000
0.379167
0.350000
0.704167
0.295833
0.383333
0.362500
0.341667
0.337500
0.362500
0.370833
0.362500
0.370833
0.237500
0.533333
0.370833
0.379167
0.379167
0.337500
0.350000
0.562500
0.587500
0.329167
0.366667
0.329167
0.375000
0.391667
0.379167
0.350000
0.345833
0.358333
0.358333
0.370833
0.466667
0.354167
0.375000
0.412500
0.379167
0.370833
0.366667
0.350000
0.354167
0.366667
0.358333
0.362500
0.366667
0.375000
0.420833
0.395833
0.358333
0.416667
0.387500
0.370833
0.450000
0.387500
0.329167
0.320833
0.379167
0.379167
0.354167
0.379167
0.345833
0.325000
0.354167
0.575000
0.254167
0.445833
0.362500
0.345833
0.320833
0.362500
1.554167
1.475000
1.133333
1.458333
1.045833
1.020833
0.916667
1.254167
1.041667
1.083333
0.950000
0.912500
0.908333
1.233333
0.991667
0.975000
0.962500
0.941667
0.937500
0.945833
0.937500
0.937500
0.933333
0.933333
0.933333
0.937500
0.933333
0.937500
0.466667
0.337500
0.308333
0.741667
0.633333
0.333333
0.370833
0.379167
0.370833
0.354167
0.354167
0.375000
0.366667
0.358333
0.358333
0.370833
0.637500
0.341667
0.408333
0.625000
0.275000
0.308333
0.816667
0.329167
0.325000
0.341667
0.395833
0.370833
0.337500
0.366667
0.366667
0.583333
0.445833
0.395833
0.362500
0.354167
0.395833
0.404167
0.404167
0.375000
0.370833
0.358333
0.366667
0.366667
0.383333
0.375000
0.358333
0.391667
0.408333
0.366667
0.358333
0.375000
0.362500
0.333333
0.341667
0.391667
0.387500
0.250000
0.500000
0.387500
0.362500
0.379167
0.350000
0.333333
0.370833
0.370833
0.375000
0.395833
0.412500
0.383333
0.425000
0.408333
0.408333
0.400000
0.370833
0.354167
0.350000
0.337500
0.387500
0.383333
0.350000
0.370833
0.358333
0.462500
0.362500
0.300000
0.308333
0.337500
0.354167
0.354167
0.391667
0.645833
0.308333
0.470833
0.416667
0.375000
0.370833
0.716667
0.408333
0.391667
0.345833
0.329167
0.325000
0.362500
0.408333
0.375000
0.366667
0.358333
0.379167
0.366667
0.325000
0.337500
0.358333
0.379167
0.412500
0.333333
0.350000
0.387500
0.370833
0.391667
0.379167
0.366667
0.375000
0.375000
0.379167
0.362500
0.366667
0.362500
0.395833
0.395833
0.362500
0.345833
0.366667
0.375000
0.420833
0.433333
0.387500
0.345833
0.341667
0.366667
0.366667
0.358333
1.625000
1.304167
1.445833
1.445833
1.100000
0.912500
1.266667
1.108333
0.966667
0.920833
1.329167
0.995833
1.066667
0.958333
0.954167
0.937500
0.929167
0.908333
0.904167
0.900000
0.879167
1.179167
0.600000
0.233333
0.329167
0.600000
0.287500
0.337500
0.358333
0.350000
0.383333
0.358333
0.358333
0.375000
0.366667
0.391667
0.366667
0.366667
0.362500
0.333333
0.350000
0.362500
0.370833
0.341667
0.370833
0.370833
0.370833
0.362500
0.345833
0.354167
0.345833
0.337500
0.362500
0.412500
0.475000
0.375000
0.345833
0.362500
1.133333
1.162500
0.450000
0.354167
0.333333
0.320833
0.341667
0.345833
0.341667
0.358333
0.479167
0.375000
0.337500
0.366667
0.358333
0.366667
0.366667
0.345833
0.375000
0.383333
0.375000
0.350000
0.341667
0.362500
0.370833
0.379167
0.358333
0.362500
0.241667
0.508333
0.608333
0.270833
0.375000
0.366667
0.341667
0.366667
0.375000
0.366667
0.366667
0.370833
0.345833
0.370833
0.375000
0.383333
0.391667
0.387500
0.375000
0.375000
0.358333
0.345833
0.379167
0.362500
0.320833
0.383333
0.400000
0.454167
0.412500
0.379167
0.350000
0.354167
0.391667
0.254167
0.537500
0.400000
0.379167
0.675000
0.258333
0.345833
0.362500
0.404167
0.479167
0.400000
0.366667
0.354167
0.341667
0.354167
0.370833
0.354167
0.383333
0.400000
0.379167
0.383333
0.358333
0.337500
0.325000
0.345833
0.366667
0.358333
0.358333
0.366667
0.620833
0.312500
0.379167
0.441667
0.475000
0.379167
0.333333
0.341667
0.345833
0.358333
0.366667
0.383333
0.404167
0.450000
0.383333
0.375000
0.395833
0.395833
0.366667
0.404167
0.491667
0.391667
0.387500
0.429167
0.362500
0.333333
0.345833
0.354167
0.383333
0.395833
0.375000
0.375000
0.341667
0.341667
0.358333
0.345833
0.370833
0.354167
0.350000
0.362500
0.404167
0.425000
0.375000
0.375000
0.391667
0.370833
0.358333
0.358333
0.366667
0.341667
0.329167
0.308333
0.341667
0.354167
0.375000
0.370833
0.379167
0.341667
0.350000
0.383333
0.379167
0.383333
0.345833
0.345833
0.383333
0.362500
0.366667
0.362500
0.350000
0.391667
0.366667
0.370833
0.375000
0.383333
0.366667
0.370833
0.379167
0.375000
0.366667
0.362500
0.358333
0.350000
0.354167
0.370833
0.366667
0.404167
0.387500
0.375000
0.383333
0.362500
0.345833
0.345833
0.362500
0.362500
0.333333
0.379167
0.391667
0.366667
0.366667
0.354167
0.358333
0.362500
0.387500
0.437500
0.379167
0.345833
0.329167
0.370833
0.375000
0.412500
0.362500
0.387500
0.383333
0.350000
0.358333
0.354167
0.370833
0.387500
0.345833
0.333333
0.345833
0.366667
0.362500
0.370833
0.391667
0.362500
0.337500
0.308333
0.329167
0.387500
0.379167
0.387500
0.383333
0.375000
0.670833
0.362500
0.358333
0.354167
0.354167
0.408333
0.341667
0.316667
0.345833
0.354167
0.383333
0.375000
0.362500
0.375000
0.229167
0.562500
0.387500
0.450000
0.383333
0.358333
0.354167
0.370833
0.395833
0.366667
0.379167
0.375000
0.329167
0.329167
1.875000
1.233333
1.375000
1.029167
0.970833
1.445833
1.054167
0.970833
0.954167
1.029167
0.933333
1.225000
1.087500
0.987500
0.925000
0.920833
0.958333
