0.537500
0.537500
0.595833
0.487500
0.533333
0.541667
0.537500
0.545833
0.537500
0.537500
0.541667
0.537500
0.495833
0.329167
0.383333
0.400000
0.554167
0.537500
0.541667
0.545833
0.179167
0.358333
0.541667
0.537500
0.541667
0.541667
0.541667
0.541667
0.537500
0.537500
0.541667
0.545833
0.541667
0.300000
0.237500
0.541667
0.537500
0.550000
0.541667
0.541667
0.541667
0.537500
0.545833
0.545833
0.541667
0.541667
0.537500
0.545833
0.541667
0.545833
0.541667
0.541667
0.537500
0.541667
0.545833
0.541667
0.537500
0.541667
0.537500
0.541667
0.545833
0.541667
0.537500
0.541667
0.537500
0.545833
0.541667
0.541667
0.541667
0.541667
0.541667
0.545833
0.545833
0.537500
0.545833
0.541667
0.545833
0.537500
0.541667
0.545833
0.537500
0.545833
0.545833
0.541667
0.541667
0.545833
0.545833
0.541667
0.541667
0.545833
0.545833
0.545833
0.541667
0.545833
0.541667
0.545833
0.550000
0.545833
0.545833
0.541667
0.545833
0.541667
0.550000
0.541667
0.729167
0.354167
0.541667
0.545833
0.541667
0.537500
0.541667
0.541667
0.550000
0.533333
0.687500
0.275000
0.391667
0.270833
0.550000
0.537500
0.541667
0.541667
0.541667
0.550000
0.537500
0.541667
0.537500
0.537500
0.541667
0.541667
0.545833
0.537500
0.537500
0.233333
0.462500
0.387500
0.541667
0.537500
0.537500
0.541667
0.545833
0.283333
0.266667
0.537500
0.541667
0.541667
0.545833
0.545833
0.229167
0.312500
0.545833
0.541667
0.550000
0.541667
0.545833
0.541667
0.550000
0.545833
0.541667
0.545833
0.541667
0.550000
0.541667
0.545833
0.541667
0.545833
0.545833
0.541667
0.541667
0.541667
0.545833
0.545833
0.541667
0.541667
0.537500
0.550000
0.541667
0.537500
0.541667
0.541667
0.541667
0.545833
0.541667
0.541667
0.537500
0.541667
0.545833
0.541667
0.537500
0.541667
0.541667
0.545833
0.541667
0.541667
0.537500
0.541667
0.545833
0.541667
0.541667
0.537500
0.545833
0.541667
0.233333
0.308333
0.341667
0.195833
0.545833
0.545833
0.541667
0.537500
0.541667
0.545833
0.545833
0.537500
0.545833
0.537500
0.545833
0.545833
0.541667
0.541667
0.541667
0.541667
0.545833
0.541667
0.541667
0.245833
0.479167
0.362500
0.541667
0.541667
0.541667
0.541667
0.437500
0.566667
0.237500
0.387500
0.237500
0.300000
0.545833
0.241667
0.845833
0.541667
0.537500
0.541667
0.541667
0.541667
0.545833
0.537500
0.541667
0.541667
0.545833
0.541667
0.541667
0.541667
0.541667
0.545833
0.541667
0.541667
0.541667
0.541667
0.541667
0.541667
0.541667
0.537500
0.545833
0.545833
0.537500
0.541667
0.541667
0.541667
0.550000
0.541667
0.541667
0.541667
0.545833
0.545833
0.541667
0.541667
0.541667
0.545833
0.545833
0.541667
0.541667
0.541667
0.541667
0.545833
0.541667
0.545833
0.541667
0.620833
0.458333
0.195833
0.354167
0.487500
0.058333
0.541667
0.445833
0.641667
0.541667
0.537500
0.545833
0.541667
0.545833
0.545833
0.504167
0.583333
0.541667
0.545833
0.545833
0.541667
0.541667
0.545833
0.545833
0.545833
0.237500
0.300000
0.537500
0.541667
0.541667
0.550000
0.541667
0.537500
0.537500
0.541667
0.545833
0.545833
0.537500
0.537500
0.537500
0.545833
0.541667
0.541667
0.537500
0.537500
0.545833
0.545833
0.541667
0.537500
0.541667
0.537500
0.545833
0.545833
0.541667
0.541667
0.541667
0.541667
0.566667
0.291667
0.395833
0.500000
0.416667
0.629167
0.441667
0.383333
0.533333
0.387500
0.320833
0.541667
0.262500
0.091667
0.716667
0.687500
0.404167
0.658333
0.945833
0.425000
0.304167
0.420833
0.291667
0.562500
0.325000
0.737500
0.262500
0.250000
0.741667
0.587500
1.033333
1.070833
1.075000
1.625000
1.612500
1.612500
0.537500
0.541667
0.537500
0.537500
0.533333
0.537500
0.545833
0.533333
0.537500
0.537500
0.537500
0.541667
0.541667
0.537500
0.537500
0.537500
0.545833
0.541667
0.537500
0.537500
0.537500
0.545833
0.537500
0.533333
0.270833
0.270833
0.541667
0.541667
0.537500
0.537500
0.541667
0.541667
0.537500
0.537500
0.537500
0.541667
0.537500
0.541667
0.537500
0.537500
0.541667
0.541667
0.541667
0.537500
0.537500
0.537500
0.537500
0.545833
0.537500
0.541667
0.537500
0.537500
0.541667
0.545833
0.537500
0.541667
0.537500
0.541667
0.545833
0.541667
0.541667
0.537500
0.541667
0.541667
0.545833
0.266667
0.275000
0.537500
0.541667
0.541667
0.545833
0.541667
0.537500
0.541667
0.541667
0.541667
0.550000
0.537500
0.541667
0.541667
0.541667
0.541667
0.541667
0.541667
0.537500
0.400000
0.145833
0.545833
0.537500
0.541667
0.541667
0.541667
0.545833
0.550000
0.537500
0.541667
0.541667
0.541667
0.545833
0.545833
0.541667
0.537500
0.541667
0.541667
0.545833
0.541667
0.537500
0.541667
0.537500
0.541667
0.541667
0.541667
0.537500
0.537500
0.541667
0.537500
0.545833
0.541667
0.537500
0.537500
0.541667
0.537500
0.541667
0.545833
0.537500
0.537500
0.537500
0.541667
0.541667
0.541667
0.541667
0.537500
0.541667
0.541667
0.545833
0.541667
0.541667
0.541667
0.545833
0.545833
0.545833
0.545833
0.541667
0.545833
0.541667
0.550000
0.541667
0.545833
0.541667
0.541667
0.545833
0.550000
0.541667
0.541667
0.545833
0.541667
0.554167
0.545833
0.545833
0.545833
0.550000
0.562500
0.562500
0.562500
0.562500
0.562500
0.562500
0.566667
0.570833
0.579167
0.570833
0.566667
0.575000
0.583333
0.583333
0.579167
0.575000
0.587500
0.583333
0.570833
0.570833
0.575000
0.570833
0.579167
0.566667
0.558333
0.562500
0.566667
0.458333
0.658333
0.554167
0.562500
0.558333
0.558333
0.550000
0.554167
0.558333
0.554167
0.554167
0.550000
0.550000
0.558333
0.550000
0.550000
0.550000
0.550000
0.554167
0.550000
0.550000
0.550000
0.554167
0.554167
0.550000
0.550000
0.554167
0.554167
0.558333
0.558333
0.558333
0.566667
0.575000
0.579167
0.579167
0.575000
0.575000
0.579167
0.579167
0.579167
0.579167
0.583333
0.587500
0.591667
0.583333
0.587500
0.587500
0.591667
0.595833
0.587500
0.575000
0.575000
0.579167
0.566667
0.566667
0.562500
0.566667
0.562500
0.558333
0.554167
0.554167
0.554167
0.516667
0.595833
0.550000
0.545833
0.550000
0.545833
0.550000
0.558333
0.545833
0.545833
0.541667
0.545833
0.550000
0.550000
0.541667
0.545833
0.541667
0.545833
0.175000
0.370833
0.545833
0.541667
0.545833
0.545833
0.541667
0.545833
0.545833
0.541667
0.550000
0.541667
0.545833
0.550000
0.541667
0.545833
0.541667
0.545833
0.550000
0.550000
0.541667
0.545833
0.545833
0.545833
0.550000
0.545833
0.541667
0.545833
0.550000
0.545833
0.541667
0.541667
0.545833
0.545833
0.550000
0.545833
0.545833
0.541667
0.541667
0.545833
0.545833
0.550000
0.545833
0.541667
0.545833
0.541667
0.545833
0.545833
0.541667
0.537500
0.541667
0.541667
0.550000
0.537500
0.541667
0.541667
0.541667
0.545833
0.541667
0.541667
0.541667
0.545833
0.545833
0.545833
0.545833
0.541667
0.545833
0.545833
0.545833
0.541667
0.545833
0.550000
0.545833
0.545833
0.545833
0.550000
0.550000
0.545833
0.550000
0.545833
0.550000
0.554167
0.545833
0.545833
0.545833
0.550000
0.550000
0.541667
0.545833
0.541667
0.550000
0.545833
0.541667
0.545833
0.541667
0.545833
0.550000
0.550000
0.541667
0.541667
0.541667
0.550000
0.550000
0.541667
0.541667
0.541667
0.545833
0.545833
0.545833
0.545833
0.541667
0.600000
0.491667
0.545833
0.545833
0.541667
0.550000
0.541667
0.354167
0.737500
0.545833
0.541667
0.295833
0.250000
0.550000
0.545833
0.545833
0.545833
0.550000
0.550000
0.545833
0.550000
0.545833
0.545833
0.550000
0.550000
0.479167
0.616667
0.550000
0.550000
0.545833
0.545833
0.545833
0.550000
0.487500
0.612500
0.550000
0.279167
0.270833
0.550000
0.550000
0.550000
0.545833
0.550000
0.550000
0.550000
0.545833
0.545833
0.545833
0.550000
0.545833
0.545833
0.545833
0.550000
0.550000
0.545833
0.550000
0.545833
0.550000
0.545833
0.545833
0.545833
0.550000
0.550000
0.545833
0.545833
0.541667
0.550000
0.545833
0.545833
0.541667
0.545833
0.550000
0.541667
0.541667
0.545833
0.541667
0.545833
0.541667
0.545833
0.541667
0.545833
0.545833
0.541667
0.545833
0.541667
0.545833
0.545833
0.545833
0.541667
0.541667
0.545833
0.550000
0.541667
0.541667
0.541667
0.545833
0.550000
0.541667
0.541667
0.545833
0.545833
0.550000
0.541667
0.545833
0.550000
0.545833
0.554167
0.545833
0.608333
0.487500
0.550000
0.554167
0.550000
0.545833
0.545833
0.550000
0.550000
0.550000
0.545833
0.545833
0.545833
0.391667
0.712500
0.545833
0.550000
0.545833
0.554167
0.545833
0.550000
0.550000
0.545833
0.550000
0.554167
0.545833
0.550000
0.545833
0.545833
0.550000
0.554167
0.550000
0.545833
0.550000
0.550000
0.550000
0.550000
0.550000
0.550000
0.341667
0.212500
0.550000
0.545833
0.525000
0.333333
0.233333
0.562500
0.208333
0.337500
0.541667
0.404167
0.558333
0.691667
0.541667
0.545833
0.554167
0.541667
0.545833
0.541667
0.550000
0.550000
0.541667
0.545833
0.541667
0.545833
0.550000
0.545833
0.241667
0.300000
0.545833
0.545833
0.545833
0.545833
0.545833
0.545833
0.545833
0.554167
0.541667
0.545833
0.545833
0.545833
0.554167
0.545833
0.545833
0.545833
0.545833
0.550000
0.550000
0.545833
0.545833
0.545833
0.550000
0.550000
0.545833
0.500000
0.591667
0.545833
0.545833
0.550000
0.545833
0.545833
0.545833
0.545833
0.554167
0.541667
0.545833
0.545833
0.545833
0.616667
0.479167
0.541667
0.545833
0.541667
0.550000
0.545833
0.558333
0.537500
0.541667
0.545833
0.554167
0.545833
0.595833
0.495833
0.550000
0.550000
0.541667
0.304167
0.250000
0.266667
0.266667
0.554167
0.554167
0.545833
0.541667
0.545833
0.545833
0.554167
0.545833
0.545833
0.541667
0.545833
0.550000
0.550000
0.541667
0.545833
0.541667
0.550000
0.545833
0.545833
0.541667
0.545833
0.545833
0.550000
0.541667
0.545833
0.541667
0.545833
0.550000
0.541667
0.541667
0.545833
0.541667
0.550000
0.545833
0.545833
0.545833
0.545833
0.554167
0.545833
0.541667
0.545833
0.550000
0.550000
0.545833
0.541667
0.545833
0.545833
0.550000
0.545833
0.545833
0.541667
0.545833
0.550000
0.545833
0.541667
0.541667
0.545833
0.545833
0.541667
0.541667
0.541667
0.541667
0.545833
0.541667
0.541667
0.541667
0.541667
0.541667
0.550000
0.537500
0.541667
0.541667
0.541667
0.550000
0.541667
0.541667
0.541667
0.541667
0.545833
0.541667
0.545833
0.545833
0.550000
0.541667
0.545833
0.554167
0.450000
0.229167
0.408333
0.545833
0.545833
0.454167
0.645833
0.550000
0.550000
0.541667
0.545833
0.545833
0.550000
0.554167
0.541667
0.545833
0.541667
0.545833
0.550000
0.550000
0.545833
0.541667
0.545833
0.545833
0.545833
0.545833
0.541667
0.545833
0.550000
0.541667
0.541667
0.541667
0.545833
0.550000
0.541667
0.545833
0.545833
0.550000
0.545833
0.545833
0.545833
0.550000
0.550000
0.545833
0.570833
0.520833
0.550000
0.545833
0.545833
0.545833
0.545833
0.550000
0.550000
0.533333
0.545833
0.545833
0.545833
0.541667
0.541667
0.545833
0.550000
0.545833
0.541667
0.545833
0.550000
0.545833
0.545833
0.545833
0.545833
0.550000
0.545833
0.545833
0.545833
0.545833
0.545833
0.554167
0.545833
0.545833
0.545833
0.545833
0.550000
