1.262500
1.129167
0.987500
0.983333
0.975000
0.879167
0.954167
0.962500
0.950000
1.029167
0.854167
0.454167
0.329167
0.341667
0.358333
0.325000
0.670833
0.291667
0.308333
0.320833
0.370833
0.362500
0.329167
0.312500
0.458333
0.312500
0.383333
0.400000
0.375000
0.354167
0.354167
0.358333
0.345833
0.337500
0.345833
0.370833
0.362500
0.504167
0.462500
0.358333
1.900000
0.962500
0.925000
1.000000
1.104167
0.475000
0.333333
0.320833
0.341667
0.420833
0.391667
0.358333
0.387500
0.383333
0.370833
0.358333
0.329167
0.675000
1.279167
1.020833
1.191667
0.475000
0.337500
0.320833
0.329167
0.241667
0.445833
1.808333
0.470833
0.337500
0.308333
0.350000
0.383333
0.733333
0.312500
1.250000
0.454167
0.350000
0.350000
0.341667
0.362500
0.370833
0.245833
0.495833
0.441667
0.400000
0.379167
0.425000
0.400000
0.383333
0.350000
0.320833
0.358333
0.366667
0.345833
0.341667
0.370833
0.354167
0.350000
0.354167
0.395833
0.387500
0.370833
0.362500
0.354167
0.354167
0.354167
0.358333
0.370833
0.362500
0.404167
0.437500
0.375000
0.375000
0.358333
0.375000
0.379167
0.325000
0.320833
0.341667
0.325000
0.387500
0.408333
0.350000
0.304167
0.425000
0.408333
0.370833
0.370833
0.354167
0.375000
0.362500
0.350000
0.358333
0.387500
0.241667
0.462500
0.483333
0.404167
0.370833
1.887500
1.062500
1.362500
1.058333
1.095833
0.941667
0.887500
1.008333
1.158333
1.012500
0.966667
0.962500
0.958333
0.954167
0.362500
0.333333
0.295833
0.312500
0.383333
0.379167
0.391667
0.383333
0.350000
0.345833
0.345833
0.362500
0.383333
0.370833
0.250000
0.537500
0.395833
0.375000
0.379167
0.358333
0.350000
0.237500
0.512500
0.370833
0.354167
0.370833
0.362500
0.358333
0.441667
0.383333
0.366667
0.370833
0.354167
0.362500
0.370833
0.362500
0.358333
0.370833
0.387500
0.395833
0.250000
0.475000
0.362500
0.358333
0.375000
0.379167
0.391667
1.254167
1.616667
1.041667
1.050000
0.925000
0.954167
0.862500
1.245833
0.475000
0.287500
0.483333
0.366667
0.333333
0.245833
0.475000
0.354167
0.337500
0.358333
0.379167
0.370833
0.366667
0.366667
0.350000
0.408333
0.375000
0.395833
0.375000
0.337500
0.358333
0.370833
0.383333
0.366667
0.370833
0.370833
0.416667
0.400000
0.362500
0.345833
0.370833
0.370833
0.366667
0.366667
0.350000
0.354167
0.358333
0.362500
0.370833
0.387500
0.245833
0.575000
0.362500
0.300000
0.337500
0.350000
0.333333
0.325000
0.512500
1.841667
1.020833
1.116667
1.062500
1.220833
1.108333
1.104167
1.016667
1.012500
1.166667
0.591667
0.233333
0.320833
0.412500
0.262500
0.437500
0.320833
0.350000
0.241667
0.450000
0.350000
0.387500
0.416667
0.254167
0.475000
0.370833
0.408333
0.395833
0.379167
0.437500
0.362500
0.320833
0.350000
0.350000
0.345833
0.354167
0.366667
0.375000
0.379167
0.379167
0.408333
0.345833
0.366667
0.387500
0.383333
0.375000
0.591667
0.445833
0.375000
0.308333
0.362500
0.379167
0.362500
0.533333
0.375000
0.308333
0.312500
0.329167
0.362500
0.370833
0.366667
0.379167
0.366667
0.366667
0.366667
0.583333
0.237500
0.654167
0.270833
1.412500
1.237500
1.058333
1.245833
1.054167
1.225000
0.475000
0.391667
0.400000
0.441667
1.416667
0.462500
0.366667
1.483333
0.475000
0.333333
0.308333
0.341667
1.479167
0.462500
0.341667
0.325000
1.675000
0.470833
0.345833
0.370833
0.362500
0.254167
0.500000
0.379167
0.350000
0.354167
0.362500
0.358333
0.362500
0.354167
0.362500
0.366667
0.366667
0.358333
0.366667
1.562500
0.466667
0.370833
0.358333
0.345833
0.354167
0.345833
0.333333
0.341667
0.341667
0.333333
0.354167
0.445833
0.366667
0.304167
0.362500
0.379167
0.341667
0.358333
0.387500
0.379167
0.362500
0.375000
0.379167
0.362500
0.366667
0.379167
0.354167
0.341667
0.387500
0.400000
0.379167
0.375000
0.366667
0.350000
0.379167
0.383333
0.354167
0.366667
0.370833
0.366667
0.354167
0.375000
0.391667
0.341667
0.291667
0.458333
0.375000
0.350000
1.704167
1.120833
1.195833
1.091667
1.104167
1.058333
1.050000
1.025000
1.095833
0.966667
0.958333
0.920833
0.908333
0.883333
0.933333
0.358333
0.329167
0.304167
0.566667
0.525000
0.500000
0.533333
1.425000
0.466667
0.354167
0.545833
1.304167
0.470833
0.341667
0.329167
0.316667
0.354167
0.370833
0.350000
0.504167
0.387500
0.337500
0.354167
0.366667
0.366667
0.350000
0.354167
0.333333
0.333333
0.362500
0.358333
0.345833
0.370833
0.433333
0.595833
0.279167
0.558333
0.387500
0.329167
0.370833
0.362500
0.354167
0.575000
0.283333
0.566667
0.266667
0.383333
0.254167
0.400000
0.333333
0.383333
0.337500
0.354167
0.366667
0.350000
0.387500
0.487500
0.700000
0.287500
0.375000
0.600000
0.420833
0.383333
0.408333
0.420833
0.379167
0.370833
0.370833
0.333333
0.329167
0.341667
0.341667
0.354167
0.237500
0.495833
0.375000
0.341667
0.337500
0.366667
0.408333
0.366667
0.358333
0.379167
0.379167
0.350000
0.341667
0.362500
0.345833
0.370833
0.433333
0.404167
0.379167
0.362500
0.345833
0.429167
0.250000
0.483333
0.362500
0.362500
0.358333
0.345833
0.320833
0.362500
0.358333
0.350000
0.358333
0.366667
0.416667
0.387500
0.362500
0.375000
0.391667
0.375000
0.383333
0.370833
0.416667
0.358333
0.341667
0.362500
0.350000
0.337500
0.370833
0.341667
0.333333
0.345833
0.350000
0.350000
0.362500
0.366667
0.366667
0.375000
0.354167
0.345833
0.358333
0.354167
0.366667
0.391667
0.350000
0.379167
0.404167
0.345833
0.325000
0.370833
0.370833
0.333333
0.341667
0.387500
0.583333
0.383333
0.383333
0.366667
0.383333
0.604167
0.391667
0.370833
0.354167
0.375000
0.370833
0.375000
0.345833
0.391667
0.375000
0.345833
0.379167
0.325000
0.366667
0.383333
0.370833
0.350000
0.345833
0.333333
0.387500
0.387500
0.450000
0.500000
0.366667
0.475000
0.379167
0.341667
0.325000
0.379167
0.237500
0.570833
0.379167
0.362500
0.358333
0.345833
0.358333
0.370833
0.433333
0.395833
0.354167
0.345833
0.366667
0.366667
0.366667
0.325000
0.395833
0.445833
0.370833
0.350000
0.366667
0.366667
0.350000
1.779167
1.262500
1.195833
1.312500
0.970833
1.166667
1.237500
0.987500
0.950000
0.941667
0.937500
0.933333
0.937500
0.920833
0.929167
0.829167
1.012500
0.912500
0.925000
0.916667
0.920833
0.912500
0.358333
0.333333
0.341667
0.375000
0.254167
0.541667
0.395833
0.345833
0.295833
0.329167
0.354167
0.366667
0.412500
0.387500
0.362500
0.350000
0.354167
0.354167
0.345833
0.341667
0.383333
0.379167
0.237500
0.533333
0.387500
0.366667
0.366667
0.337500
0.337500
0.345833
0.345833
0.354167
0.429167
0.404167
0.366667
0.362500
0.350000
0.354167
0.354167
0.350000
0.237500
0.512500
0.354167
0.366667
0.379167
0.350000
0.358333
0.416667
0.379167
0.362500
0.366667
0.379167
0.379167
0.375000
0.358333
0.358333
0.358333
0.341667
0.383333
0.383333
0.370833
0.345833
0.416667
1.645833
1.095833
1.304167
1.108333
1.183333
0.991667
0.962500
0.962500
0.970833
0.970833
0.958333
0.954167
0.950000
0.470833
0.225000
0.333333
0.325000
0.245833
0.479167
0.370833
0.358333
0.354167
0.358333
0.358333
0.362500
0.362500
0.354167
0.354167
0.358333
0.345833
0.350000
0.345833
1.558333
0.458333
0.345833
0.320833
0.341667
0.341667
0.387500
0.462500
0.454167
1.229167
0.450000
0.345833
0.320833
0.658333
1.420833
0.458333
0.345833
0.395833
0.391667
0.345833
0.383333
0.379167
0.341667
0.345833
0.358333
0.358333
0.354167
0.358333
0.358333
0.362500
0.358333
0.358333
0.358333
0.362500
0.366667
0.362500
0.362500
0.362500
0.366667
0.362500
0.362500
0.362500
0.366667
0.362500
0.362500
0.366667
0.366667
0.362500
0.366667
0.370833
0.366667
0.358333
0.366667
0.370833
0.366667
0.362500
0.366667
0.366667
0.362500
0.358333
0.370833
0.370833
0.362500
0.370833
0.370833
0.358333
0.366667
0.370833
0.362500
0.362500
0.366667
0.366667
0.362500
0.358333
0.366667
0.366667
0.358333
0.366667
0.366667
0.362500
0.362500
0.366667
0.362500
0.362500
0.362500
0.366667
0.366667
0.358333
0.366667
0.362500
0.362500
0.362500
0.366667
0.366667
0.358333
0.362500
0.370833
0.362500
0.362500
0.362500
0.370833
0.366667
0.366667
0.354167
0.366667
0.370833
0.366667
0.362500
0.366667
0.362500
0.358333
0.362500
0.366667
0.362500
0.345833
0.558333
0.466667
0.354167
0.441667
0.533333
0.512500
0.545833
1.441667
1.379167
1.004167
1.008333
1.008333
0.991667
0.970833
0.958333
0.945833
0.941667
0.945833
0.941667
0.925000
0.933333
0.904167
0.916667
0.787500
0.937500
1.237500
0.595833
0.641667
0.666667
0.179167
1.762500
0.483333
0.350000
0.362500
0.395833
0.262500
0.366667
0.345833
0.420833
0.320833
0.358333
0.350000
0.404167
0.583333
0.145833
0.808333
0.287500
0.337500
0.366667
0.370833
0.350000
0.362500
0.375000
0.362500
0.337500
0.354167
0.425000
0.366667
0.341667
0.383333
0.241667
0.441667
0.333333
0.362500
0.420833
0.375000
0.358333
0.370833
0.354167
0.554167
0.562500
0.262500
0.320833
0.366667
0.358333
0.358333
0.350000
0.354167
0.358333
0.679167
0.304167
0.404167
0.383333
0.245833
0.487500
0.350000
0.358333
0.358333
0.350000
0.345833
0.333333
0.337500
0.358333
0.391667
0.441667
0.375000
0.358333
0.329167
0.337500
0.525000
0.379167
0.779167
0.295833
0.345833
0.320833
0.325000
0.379167
0.412500
0.375000
0.370833
0.370833
0.454167
0.545833
0.400000
0.400000
0.408333
0.358333
0.362500
0.350000
0.520833
0.475000
0.350000
0.341667
0.370833
0.391667
0.420833
0.375000
0.341667
0.341667
0.341667
0.345833
0.362500
0.237500
0.441667
0.337500
0.387500
0.370833
0.237500
0.462500
0.333333
0.354167
0.366667
0.366667
0.433333
0.366667
0.329167
0.320833
0.337500
0.233333
0.458333
0.316667
0.412500
0.375000
0.237500
0.495833
0.375000
0.237500
0.433333
0.333333
0.345833
0.341667
0.345833
0.341667
0.341667
0.341667
0.375000
0.354167
0.337500
0.375000
0.329167
0.229167
0.591667
0.370833
0.333333
0.350000
0.354167
0.233333
0.454167
0.325000
0.354167
0.358333
0.229167
0.504167
0.333333
0.320833
0.383333
0.375000
0.237500
0.525000
0.350000
0.383333
0.383333
0.366667
0.229167
0.504167
0.370833
0.358333
0.337500
0.345833
0.362500
0.229167
0.470833
0.354167
0.358333
0.379167
0.362500
0.350000
0.337500
0.358333
0.375000
0.354167
0.345833
0.370833
0.429167
0.379167
0.362500
0.358333
0.362500
0.358333
0.341667
0.304167
0.295833
0.341667
0.425000
0.333333
0.358333
0.387500
0.400000
0.366667
0.370833
0.404167
0.379167
0.370833
0.337500
0.325000
0.391667
0.341667
0.337500
0.341667
0.354167
0.420833
0.375000
0.345833
0.354167
0.350000
0.337500
0.412500
0.391667
0.345833
0.337500
0.341667
0.370833
0.354167
0.533333
0.379167
0.345833
0.345833
0.341667
0.366667
0.408333
0.358333
0.375000
0.358333
0.325000
0.379167
0.233333
0.500000
0.337500
0.225000
0.512500
0.383333
0.370833
0.350000
0.341667
0.337500
0.370833
0.408333
0.366667
0.383333
0.362500
0.350000
0.345833
0.229167
0.433333
0.475000
0.237500
0.366667
0.470833
0.350000
0.354167
0.358333
0.350000
0.333333
0.354167
0.379167
0.416667
0.375000
0.233333
0.491667
0.233333
0.479167
0.366667
0.366667
0.375000
0.345833
0.333333
0.345833
0.350000
0.566667
0.383333
0.354167
0.350000
0.408333
0.400000
0.350000
0.425000
0.395833
0.375000
0.320833
0.333333
0.366667
0.366667
0.379167
0.420833
0.383333
0.391667
0.387500
0.233333
0.595833
0.391667
0.366667
0.320833
0.341667
0.354167
0.366667
0.370833
0.341667
0.354167
0.225000
0.554167
0.412500
0.383333
0.370833
0.375000
0.387500
0.387500
0.333333
0.337500
0.437500
0.383333
0.362500
0.345833
0.362500
0.379167
0.370833
0.350000
0.350000
0.362500
0.350000
0.341667
0.412500
0.350000
0.316667
0.337500
0.358333
0.325000
0.370833
0.445833
0.420833
0.375000
0.350000
0.341667
0.358333
0.354167
0.229167
0.508333
0.379167
0.337500
0.350000
0.366667
0.404167
0.366667
0.333333
0.341667
0.337500
0.229167
0.504167
0.395833
0.383333
0.379167
0.333333
0.358333
0.366667
0.350000
0.425000
0.387500
0.375000
0.375000
0.375000
0.362500
0.391667
0.337500
0.341667
0.366667
0.358333
0.333333
0.345833
0.404167
0.404167
0.362500
0.325000
0.362500
0.370833
0.329167
0.300000
0.366667
0.383333
0.408333
0.400000
0.358333
0.325000
0.354167
0.354167
0.358333
0.333333
0.304167
0.520833
0.383333
0.354167
0.350000
0.333333
0.329167
0.370833
0.358333
0.358333
0.354167
0.337500
0.345833
0.354167
0.358333
0.387500
0.345833
0.341667
0.229167
0.475000
0.337500
0.620833
0.245833
0.304167
0.304167
0.341667
0.225000
0.475000
0.345833
0.350000
0.375000
0.362500
0.341667
0.362500
0.350000
0.370833
0.362500
0.358333
0.362500
0.350000
0.350000
0.354167
0.354167
0.400000
0.408333
0.366667
0.337500
0.333333
0.345833
0.337500
0.337500
0.325000
0.220833
0.600000
0.412500
0.366667
0.225000
0.550000
0.375000
0.362500
0.341667
0.383333
0.370833
0.358333
0.395833
1.925000
1.362500
0.966667
0.950000
1.429167
1.079167
0.966667
0.962500
0.937500
1.320833
1.000000
0.970833
