0.554167
0.245833
0.304167
0.550000
0.541667
0.570833
0.550000
0.550000
0.558333
0.554167
0.550000
0.554167
0.558333
0.554167
0.550000
0.550000
0.550000
0.562500
0.566667
0.562500
0.558333
0.566667
0.579167
0.575000
0.575000
0.570833
0.579167
0.587500
0.587500
0.512500
0.645833
0.583333
0.583333
0.587500
0.583333
0.575000
0.570833
0.575000
0.579167
0.570833
0.387500
0.333333
0.425000
0.575000
0.237500
0.466667
0.491667
0.345833
0.316667
0.404167
0.575000
0.633333
0.658333
0.270833
0.666667
0.558333
0.566667
0.554167
0.554167
0.562500
0.566667
0.554167
0.566667
0.562500
0.562500
0.566667
0.575000
0.570833
0.562500
0.558333
0.566667
0.570833
0.562500
0.562500
0.558333
0.566667
0.566667
0.558333
0.554167
0.562500
0.566667
0.558333
0.554167
0.708333
0.229167
0.287500
0.712500
0.341667
0.520833
0.566667
0.566667
0.575000
0.566667
0.566667
0.570833
0.575000
0.579167
0.275000
0.304167
0.579167
0.579167
0.583333
0.587500
0.579167
0.570833
0.579167
0.579167
0.570833
0.566667
0.566667
0.570833
0.262500
0.304167
0.558333
0.558333
0.450000
0.204167
0.462500
0.554167
0.554167
0.554167
0.254167
0.845833
0.550000
0.554167
0.554167
0.545833
0.308333
0.241667
0.550000
0.550000
0.554167
0.654167
0.437500
0.550000
0.345833
0.208333
0.550000
0.545833
0.545833
0.550000
0.554167
0.545833
0.541667
0.545833
0.550000
0.554167
0.545833
0.541667
0.545833
0.550000
0.554167
0.541667
0.545833
0.545833
0.554167
0.545833
0.545833
0.545833
0.545833
0.550000
0.550000
0.545833
0.545833
0.545833
0.554167
0.545833
0.545833
0.545833
0.545833
0.545833
0.550000
0.554167
0.541667
0.545833
0.545833
0.545833
0.541667
0.545833
0.550000
0.550000
0.541667
0.545833
0.541667
0.550000
0.550000
0.541667
0.541667
0.541667
0.545833
0.550000
0.541667
0.541667
0.545833
0.545833
0.545833
0.545833
0.541667
0.541667
0.550000
0.545833
0.541667
0.545833
0.541667
0.545833
0.550000
0.541667
0.541667
0.545833
0.545833
0.545833
0.545833
0.545833
0.545833
0.545833
0.545833
0.545833
0.545833
0.195833
0.350000
0.545833
0.545833
0.545833
0.545833
0.545833
0.308333
0.237500
0.545833
0.545833
0.550000
0.550000
0.545833
0.545833
0.545833
0.545833
0.554167
0.545833
0.545833
0.545833
0.545833
0.550000
0.550000
0.541667
0.545833
0.545833
0.554167
0.545833
0.545833
0.550000
0.545833
0.550000
0.545833
0.545833
0.550000
0.545833
0.550000
0.550000
0.545833
0.545833
0.541667
0.554167
0.550000
0.541667
0.545833
0.550000
0.550000
0.545833
0.545833
0.541667
0.554167
0.550000
0.545833
0.545833
0.545833
0.550000
0.550000
0.550000
0.541667
0.545833
0.550000
0.550000
0.545833
0.545833
0.545833
0.554167
0.545833
0.545833
0.545833
0.545833
0.550000
0.550000
0.545833
0.545833
0.545833
0.545833
0.554167
0.545833
0.545833
0.545833
0.545833
0.550000
0.545833
0.545833
0.545833
0.545833
0.545833
0.554167
0.545833
0.545833
0.550000
0.550000
0.550000
0.554167
0.391667
0.708333
0.545833
0.554167
0.550000
0.550000
0.550000
0.550000
0.554167
0.550000
0.545833
0.550000
0.550000
0.562500
0.783333
0.870833
0.562500
0.562500
0.562500
0.562500
0.554167
0.575000
0.562500
0.566667
0.570833
0.570833
0.566667
0.558333
0.562500
0.566667
0.562500
0.558333
0.554167
0.558333
0.562500
0.554167
0.550000
0.550000
0.554167
0.558333
0.550000
0.545833
0.545833
0.550000
0.558333
0.545833
0.541667
0.545833
0.645833
0.454167
0.541667
0.541667
0.545833
0.545833
0.208333
0.641667
0.775000
0.541667
0.550000
0.545833
0.537500
0.537500
0.541667
0.541667
0.550000
0.541667
0.537500
0.537500
0.545833
0.545833
0.541667
0.537500
0.541667
0.541667
0.541667
0.550000
0.541667
0.541667
0.537500
0.545833
0.545833
0.545833
0.541667
0.541667
0.541667
0.545833
0.545833
0.537500
0.541667
0.545833
0.545833
0.541667
0.541667
0.537500
0.545833
0.550000
0.541667
0.537500
0.545833
0.541667
0.550000
0.545833
0.541667
0.541667
0.541667
0.545833
0.545833
0.541667
0.541667
0.541667
0.541667
0.545833
0.541667
0.237500
0.300000
0.670833
0.425000
0.550000
0.550000
0.554167
0.554167
0.558333
0.550000
0.545833
0.550000
0.554167
0.554167
0.554167
0.550000
0.550000
0.550000
0.558333
0.545833
0.545833
0.545833
0.550000
0.516667
0.575000
0.550000
0.545833
0.550000
0.550000
0.541667
0.541667
0.541667
0.545833
0.545833
0.550000
0.537500
0.541667
0.541667
0.545833
0.545833
0.541667
0.541667
0.541667
0.545833
0.545833
0.541667
0.541667
0.545833
0.541667
0.550000
0.541667
0.541667
0.545833
0.541667
0.545833
0.545833
0.541667
0.545833
0.541667
0.545833
0.550000
0.541667
0.541667
0.541667
0.545833
0.550000
0.541667
0.541667
0.541667
0.550000
0.550000
0.541667
0.545833
0.545833
0.541667
0.554167
0.541667
0.541667
0.550000
0.545833
0.550000
0.545833
0.554167
0.545833
0.545833
0.545833
0.550000
0.554167
0.545833
0.545833
0.545833
0.545833
0.554167
0.545833
0.545833
0.545833
0.545833
0.550000
0.550000
0.545833
0.545833
0.545833
0.554167
0.545833
0.545833
0.550000
0.545833
0.554167
0.545833
0.550000
0.545833
0.550000
0.554167
0.550000
0.545833
0.550000
0.550000
0.554167
0.554167
0.550000
0.550000
0.550000
0.554167
0.550000
0.550000
0.545833
0.550000
0.554167
0.550000
0.545833
0.550000
0.554167
0.550000
0.550000
0.550000
0.550000
0.554167
0.554167
0.550000
0.550000
0.550000
0.554167
0.558333
0.550000
0.550000
0.550000
0.554167
0.558333
0.550000
0.550000
0.554167
0.554167
0.554167
0.550000
0.550000
0.554167
0.570833
0.541667
0.550000
0.550000
0.550000
0.558333
0.550000
0.545833
0.550000
0.554167
0.554167
0.550000
0.545833
0.550000
0.550000
0.550000
0.554167
0.554167
0.550000
0.550000
0.483333
0.620833
0.200000
0.354167
0.550000
0.554167
0.550000
0.554167
0.562500
0.550000
0.550000
0.550000
0.558333
0.558333
0.550000
0.554167
0.550000
0.558333
0.558333
0.550000
0.554167
0.554167
0.558333
0.554167
0.550000
0.550000
0.550000
0.558333
0.554167
0.550000
0.554167
0.550000
0.554167
0.550000
0.550000
0.550000
0.558333
0.554167
0.545833
0.550000
0.554167
0.550000
0.558333
0.550000
0.550000
0.554167
0.554167
0.550000
0.554167
0.554167
0.554167
0.558333
0.554167
0.554167
0.554167
0.554167
0.554167
0.558333
0.554167
0.554167
0.550000
0.558333
0.558333
0.554167
0.554167
0.550000
0.558333
0.562500
0.550000
0.550000
0.554167
0.554167
0.558333
0.550000
0.554167
0.550000
0.554167
0.554167
0.550000
0.554167
0.545833
0.554167
0.558333
0.550000
0.545833
0.550000
0.550000
0.554167
0.545833
0.550000
0.545833
0.554167
0.550000
0.550000
0.550000
0.545833
0.550000
0.550000
0.554167
0.550000
0.550000
0.550000
0.550000
0.558333
0.550000
0.550000
0.545833
0.554167
0.554167
0.550000
0.550000
0.550000
0.550000
0.554167
0.554167
0.554167
0.550000
0.550000
0.554167
0.554167
0.550000
0.554167
0.550000
0.554167
0.545833
0.550000
0.550000
0.550000
0.554167
0.550000
0.550000
0.558333
0.550000
0.550000
0.550000
0.558333
0.550000
0.550000
0.550000
0.554167
0.554167
0.562500
0.550000
0.550000
0.550000
0.554167
0.554167
0.554167
0.554167
0.550000
0.550000
0.554167
0.554167
0.558333
0.545833
0.550000
0.550000
0.554167
0.558333
0.545833
0.550000
0.550000
0.550000
0.554167
0.550000
0.550000
0.554167
0.550000
0.558333
0.562500
0.541667
0.554167
0.554167
0.558333
0.550000
0.554167
0.554167
0.558333
0.558333
0.554167
0.554167
0.554167
0.558333
0.566667
0.554167
0.554167
0.562500
0.562500
0.554167
0.554167
0.558333
0.562500
0.554167
0.554167
0.558333
0.558333
0.558333
0.554167
0.554167
0.554167
0.558333
0.558333
0.550000
0.554167
0.554167
0.558333
0.558333
0.554167
0.550000
0.558333
0.558333
0.554167
0.550000
0.554167
0.558333
0.554167
0.550000
0.554167
0.550000
0.558333
0.554167
0.554167
0.550000
0.554167
0.554167
0.558333
0.554167
0.554167
0.550000
0.554167
0.554167
0.562500
0.208333
0.345833
0.554167
0.316667
0.241667
0.558333
0.554167
0.554167
0.554167
0.558333
0.562500
0.558333
0.554167
0.558333
0.562500
0.554167
0.558333
0.554167
0.558333
0.558333
0.779167
0.241667
0.487500
0.212500
0.570833
0.604167
0.400000
0.379167
0.204167
0.412500
0.691667
0.612500
0.145833
0.604167
0.337500
0.216667
0.233333
0.279167
0.870833
0.545833
0.550000
0.550000
0.550000
0.558333
0.545833
0.550000
0.550000
0.558333
0.558333
0.545833
0.550000
0.554167
0.558333
0.554167
0.550000
0.545833
0.554167
0.558333
0.545833
0.550000
0.550000
0.550000
0.554167
0.545833
0.550000
0.545833
0.554167
0.545833
0.545833
0.545833
0.550000
0.550000
0.545833
0.541667
0.550000
0.550000
0.550000
0.545833
0.541667
0.550000
0.550000
0.550000
0.545833
0.545833
0.550000
0.550000
0.554167
0.550000
0.545833
0.550000
0.550000
0.554167
0.550000
0.550000
0.545833
0.550000
0.550000
0.554167
0.550000
0.550000
0.550000
0.550000
0.554167
0.554167
0.550000
0.550000
0.554167
0.550000
0.558333
0.550000
0.554167
0.550000
0.554167
0.554167
0.558333
0.550000
0.550000
0.554167
0.554167
0.558333
0.550000
0.554167
0.550000
0.558333
0.558333
0.554167
0.558333
0.554167
0.558333
0.558333
0.558333
0.554167
0.554167
0.558333
0.558333
0.554167
0.554167
0.558333
0.554167
0.558333
0.554167
0.554167
0.558333
0.554167
0.558333
0.566667
0.554167
0.554167
0.558333
0.558333
0.562500
0.558333
0.554167
0.554167
0.558333
0.566667
0.554167
0.554167
0.554167
0.562500
0.554167
0.558333
0.554167
0.554167
0.562500
0.554167
0.554167
0.558333
0.554167
0.558333
0.562500
0.554167
0.554167
0.554167
0.558333
0.558333
0.554167
0.554167
0.554167
0.554167
0.562500
0.554167
0.550000
0.554167
0.558333
0.558333
0.554167
0.554167
0.554167
0.554167
0.416667
0.137500
0.545833
0.562500
0.554167
0.562500
0.554167
0.554167
0.554167
0.558333
0.562500
0.554167
0.550000
0.558333
0.558333
0.558333
0.550000
0.550000
0.558333
0.558333
0.550000
0.554167
0.550000
0.558333
0.554167
0.554167
0.550000
0.550000
0.558333
0.554167
0.550000
0.550000
0.550000
0.554167
0.558333
0.550000
0.554167
0.550000
0.550000
0.558333
0.558333
0.550000
0.550000
0.554167
0.554167
0.558333
0.550000
0.550000
0.545833
0.558333
0.558333
0.550000
0.550000
0.554167
0.554167
0.558333
0.550000
0.550000
0.554167
0.550000
0.554167
0.558333
0.550000
0.550000
0.550000
0.550000
0.558333
0.554167
0.550000
0.550000
0.550000
0.554167
0.558333
0.550000
0.550000
0.550000
0.554167
0.558333
0.554167
0.550000
0.554167
0.550000
0.554167
0.558333
0.554167
0.550000
0.554167
0.550000
0.554167
0.558333
0.554167
0.550000
0.554167
0.550000
0.558333
0.558333
0.562500
0.554167
0.558333
0.554167
0.558333
0.562500
0.554167
0.554167
0.558333
0.558333
0.558333
0.554167
0.558333
0.558333
0.558333
0.562500
0.554167
0.558333
0.554167
0.558333
0.562500
0.558333
0.558333
0.554167
0.558333
0.562500
0.558333
0.554167
0.554167
0.554167
