0.520833
0.520833
0.520833
0.520833
0.520833
0.525000
0.516667
0.520833
0.525000
0.516667
0.520833
0.520833
0.520833
0.520833
0.516667
0.520833
0.516667
0.520833
0.520833
0.516667
0.525000
0.520833
0.520833
0.520833
0.525000
0.525000
0.525000
0.525000
0.525000
0.529167
0.533333
0.525000
0.529167
0.533333
0.533333
0.529167
0.533333
0.533333
0.533333
0.529167
0.537500
0.533333
0.533333
0.533333
0.533333
0.533333
0.533333
0.533333
0.533333
0.533333
0.529167
0.529167
0.529167
0.529167
0.525000
0.525000
0.525000
0.529167
0.525000
0.529167
0.529167
0.533333
0.529167
0.529167
0.529167
0.529167
0.529167
0.529167
0.529167
0.529167
0.533333
0.533333
0.529167
0.525000
0.470833
0.587500
0.529167
0.529167
0.529167
0.529167
0.529167
0.533333
0.533333
0.533333
0.529167
0.529167
0.533333
0.533333
0.533333
0.529167
0.533333
0.529167
0.533333
0.533333
0.533333
0.537500
0.533333
0.241667
0.829167
0.316667
0.220833
0.304167
0.225000
0.537500
0.329167
0.200000
0.525000
0.529167
0.525000
0.525000
0.525000
0.520833
0.525000
0.520833
0.520833
0.520833
0.520833
0.520833
0.520833
0.520833
0.212500
0.308333
0.520833
0.512500
0.512500
0.516667
0.516667
0.516667
0.516667
0.512500
0.516667
0.516667
0.516667
0.516667
0.516667
0.512500
0.516667
0.516667
0.520833
0.516667
0.520833
0.520833
0.520833
0.520833
0.520833
0.520833
0.520833
0.525000
0.520833
0.525000
0.525000
0.529167
0.533333
0.533333
0.537500
0.533333
0.533333
0.533333
0.537500
0.533333
0.541667
0.537500
0.533333
0.533333
0.533333
0.529167
0.533333
0.529167
0.529167
0.529167
0.529167
0.529167
0.529167
0.525000
0.529167
0.525000
0.529167
0.525000
0.529167
0.525000
0.525000
0.525000
0.520833
0.525000
0.525000
0.520833
0.525000
0.520833
0.520833
0.520833
0.525000
0.520833
0.520833
0.520833
0.520833
0.520833
0.525000
0.520833
0.516667
0.525000
0.516667
0.520833
0.520833
0.520833
0.520833
0.516667
0.516667
0.520833
0.512500
0.520833
0.512500
0.516667
0.520833
0.512500
0.516667
0.516667
0.516667
0.520833
0.516667
0.516667
0.516667
0.516667
0.516667
0.516667
0.516667
0.516667
0.512500
0.516667
0.520833
0.516667
0.512500
0.512500
0.516667
0.516667
0.516667
0.516667
0.516667
0.520833
0.516667
0.520833
0.516667
0.516667
0.520833
0.516667
0.516667
0.516667
0.520833
0.516667
0.516667
0.516667
0.516667
0.516667
0.516667
0.516667
0.520833
0.516667
0.516667
0.520833
0.516667
0.520833
0.520833
0.520833
0.520833
0.525000
0.520833
0.737500
0.820833
0.516667
0.525000
0.520833
0.525000
0.520833
0.520833
0.520833
0.520833
0.525000
0.520833
0.516667
0.520833
0.520833
0.520833
0.520833
0.520833
0.520833
0.520833
0.520833
0.520833
0.520833
0.520833
0.520833
0.516667
0.520833
0.520833
0.520833
0.520833
0.520833
0.520833
0.520833
0.516667
0.520833
0.516667
0.520833
0.516667
0.520833
0.520833
0.516667
0.516667
0.520833
0.516667
0.520833
0.516667
0.516667
0.520833
0.516667
0.516667
0.516667
0.520833
0.516667
0.520833
0.516667
0.520833
0.520833
0.520833
0.516667
0.520833
0.520833
0.516667
0.520833
0.516667
0.520833
0.520833
0.520833
0.520833
0.525000
0.520833
0.520833
0.220833
0.400000
0.204167
0.745833
0.525000
0.520833
0.529167
0.525000
0.525000
0.525000
0.525000
0.525000
0.525000
0.525000
0.525000
0.525000
0.525000
0.520833
0.525000
0.529167
0.525000
0.525000
0.525000
0.525000
0.520833
0.525000
0.525000
0.520833
0.520833
0.520833
0.520833
0.520833
0.520833
0.520833
0.516667
0.520833
0.520833
0.516667
0.516667
0.520833
0.520833
0.516667
0.516667
0.516667
0.516667
0.516667
0.516667
0.516667
0.520833
0.516667
0.516667
0.516667
0.520833
0.516667
0.520833
0.516667
0.520833
0.520833
0.516667
0.520833
0.516667
0.520833
0.520833
0.516667
0.516667
0.516667
0.516667
0.516667
0.516667
0.516667
0.516667
0.520833
0.516667
0.520833
0.520833
0.516667
0.520833
0.520833
0.520833
0.525000
0.516667
0.520833
0.520833
0.520833
0.520833
0.520833
0.520833
0.525000
0.520833
0.520833
0.525000
0.529167
0.525000
0.525000
0.525000
0.529167
0.525000
0.520833
0.529167
0.525000
0.525000
0.525000
0.525000
0.525000
0.525000
0.525000
0.525000
0.525000
0.529167
0.525000
0.525000
0.525000
0.520833
0.525000
0.525000
0.525000
0.525000
0.525000
0.529167
0.525000
0.525000
0.529167
0.525000
0.525000
0.525000
0.525000
0.525000
0.525000
0.520833
0.525000
0.525000
0.520833
0.525000
0.520833
0.525000
0.520833
0.525000
0.520833
0.520833
0.520833
0.520833
0.525000
0.520833
0.525000
0.525000
0.525000
0.520833
0.525000
0.525000
0.520833
0.525000
0.520833
0.520833
0.525000
0.520833
0.525000
0.520833
0.520833
0.525000
0.520833
0.525000
0.520833
0.520833
0.520833
0.520833
0.516667
0.520833
0.520833
0.516667
0.520833
0.516667
0.520833
0.520833
0.520833
0.520833
0.520833
0.525000
0.520833
0.520833
0.520833
0.520833
0.525000
0.520833
0.520833
0.525000
0.525000
0.520833
0.525000
0.520833
0.520833
0.520833
0.525000
0.520833
0.525000
0.525000
0.525000
0.525000
0.529167
0.520833
0.525000
0.525000
0.529167
0.525000
0.525000
0.520833
0.525000
0.525000
0.525000
0.525000
0.525000
0.529167
0.525000
0.525000
0.525000
0.525000
0.525000
0.525000
0.525000
0.520833
0.529167
0.520833
0.520833
0.525000
0.520833
0.520833
0.525000
0.525000
0.525000
0.525000
0.525000
0.520833
0.529167
0.525000
0.525000
0.525000
0.525000
0.529167
0.520833
0.525000
0.525000
0.529167
0.525000
0.520833
0.525000
0.525000
0.525000
0.525000
0.525000
0.525000
0.529167
0.525000
0.529167
0.525000
0.529167
0.529167
0.529167
0.529167
0.529167
0.529167
0.529167
0.529167
0.529167
0.529167
0.529167
0.533333
0.529167
0.529167
0.529167
0.529167
0.533333
0.529167
0.529167
0.537500
0.533333
0.529167
0.533333
0.533333
0.537500
0.529167
0.533333
0.533333
0.533333
0.533333
0.533333
0.529167
0.533333
0.533333
0.529167
0.525000
0.529167
0.533333
0.529167
0.529167
0.529167
0.533333
0.533333
0.533333
0.529167
0.533333
0.533333
0.537500
0.533333
0.533333
0.537500
0.533333
0.537500
0.533333
0.533333
0.537500
0.533333
0.533333
0.533333
0.533333
0.533333
0.533333
0.529167
0.533333
0.529167
0.533333
0.533333
0.529167
0.533333
0.533333
0.529167
0.529167
0.529167
0.533333
0.529167
0.529167
0.533333
0.533333
0.529167
0.529167
0.533333
0.529167
0.529167
0.529167
0.529167
0.533333
0.529167
0.529167
0.529167
0.529167
0.529167
0.533333
0.529167
0.529167
0.533333
0.716667
0.345833
0.295833
0.762500
0.529167
0.533333
0.529167
0.525000
0.529167
0.529167
0.529167
0.529167
0.529167
0.529167
0.529167
0.529167
0.533333
0.533333
0.537500
0.533333
0.533333
0.533333
0.533333
0.537500
0.533333
0.533333
0.537500
0.537500
0.537500
0.533333
0.533333
0.541667
0.537500
0.533333
0.533333
0.537500
0.533333
0.533333
0.533333
0.533333
0.533333
0.529167
0.533333
0.533333
0.529167
0.533333
0.529167
0.529167
0.533333
0.533333
0.533333
0.533333
0.533333
0.529167
0.533333
0.241667
0.295833
0.529167
0.533333
0.450000
0.616667
0.529167
0.533333
0.537500
0.533333
0.533333
0.533333
0.533333
0.537500
0.533333
0.533333
0.537500
0.537500
0.533333
0.533333
0.537500
0.537500
0.537500
0.537500
0.533333
0.537500
0.537500
0.537500
0.533333
0.537500
0.537500
0.537500
0.533333
0.537500
0.533333
0.533333
0.533333
0.533333
0.533333
0.533333
0.533333
0.525000
0.325000
0.208333
0.529167
0.533333
0.529167
0.529167
0.529167
0.529167
0.533333
0.529167
0.529167
0.529167
0.529167
0.525000
0.529167
0.529167
0.525000
0.529167
0.525000
0.529167
0.529167
0.529167
0.525000
0.533333
0.529167
0.533333
0.529167
0.533333
0.533333
0.533333
0.529167
0.533333
0.533333
0.533333
0.529167
0.533333
0.529167
0.533333
0.529167
0.529167
0.529167
0.533333
0.533333
0.533333
0.529167
0.529167
0.533333
0.533333
0.533333
0.533333
0.533333
0.533333
0.533333
0.529167
0.533333
0.533333
0.533333
0.529167
0.529167
0.533333
0.525000
0.529167
0.525000
0.529167
0.529167
0.525000
0.525000
0.525000
0.525000
0.525000
0.525000
0.525000
0.525000
0.529167
0.525000
0.525000
0.529167
0.525000
0.529167
0.525000
0.529167
0.529167
0.525000
0.525000
0.525000
0.441667
0.587500
0.525000
0.529167
0.520833
0.520833
0.525000
0.525000
0.525000
0.520833
0.525000
0.525000
0.525000
0.525000
0.525000
0.529167
0.525000
0.529167
0.529167
0.525000
0.533333
0.529167
0.529167
0.529167
0.533333
0.529167
0.533333
0.529167
0.525000
0.529167
0.529167
0.525000
0.504167
0.554167
0.525000
0.533333
0.529167
0.529167
0.529167
0.529167
0.525000
0.529167
0.529167
0.525000
0.525000
0.525000
0.529167
0.520833
0.525000
0.520833
0.525000
0.520833
0.525000
0.520833
0.525000
0.525000
0.525000
0.529167
0.520833
0.525000
0.525000
0.529167
0.520833
0.525000
0.520833
0.525000
0.520833
0.525000
0.525000
0.525000
0.525000
0.525000
0.525000
0.525000
0.525000
0.529167
0.516667
0.245833
0.283333
0.525000
0.529167
0.516667
0.525000
0.520833
0.525000
0.520833
0.525000
0.525000
0.520833
0.525000
0.525000
0.520833
0.520833
0.525000
0.525000
0.520833
0.525000
0.525000
0.520833
0.525000
0.525000
0.525000
0.525000
0.525000
0.529167
0.525000
0.525000
0.525000
0.529167
0.529167
0.529167
0.529167
0.529167
0.533333
0.529167
0.533333
0.529167
0.529167
0.529167
0.529167
0.529167
0.529167
0.529167
0.529167
0.533333
0.529167
0.529167
0.533333
0.533333
0.533333
0.533333
0.533333
0.533333
0.533333
0.533333
0.533333
0.529167
0.533333
0.529167
0.529167
0.529167
0.529167
0.529167
0.529167
0.529167
0.529167
0.529167
0.529167
0.525000
0.529167
0.529167
0.529167
0.525000
0.525000
0.525000
0.525000
0.529167
0.525000
0.529167
0.525000
0.525000
0.525000
0.525000
0.525000
0.525000
0.525000
0.529167
0.525000
0.525000
0.525000
0.529167
0.529167
0.525000
0.529167
0.525000
0.529167
0.529167
0.525000
0.525000
0.529167
0.525000
0.525000
0.525000
0.525000
0.525000
0.529167
0.529167
0.525000
0.529167
0.525000
0.525000
0.529167
0.525000
0.529167
0.525000
0.525000
0.529167
0.529167
0.525000
0.529167
0.529167
0.533333
0.529167
0.533333
0.533333
0.537500
0.537500
0.537500
0.537500
0.541667
0.541667
0.541667
0.541667
0.537500
0.541667
0.541667
0.537500
0.537500
0.541667
0.541667
0.537500
0.537500
0.541667
0.541667
0.537500
0.537500
0.541667
0.541667
0.537500
0.537500
0.533333
0.537500
0.537500
0.541667
0.533333
0.537500
0.541667
0.541667
0.537500
0.537500
0.541667
0.537500
0.537500
0.537500
0.537500
0.537500
0.533333
0.533333
0.533333
0.533333
0.533333
0.529167
0.533333
0.537500
0.533333
0.441667
0.625000
0.533333
0.537500
0.533333
0.537500
0.537500
0.537500
0.533333
0.533333
0.537500
0.541667
0.537500
0.533333
0.537500
0.537500
0.533333
0.537500
0.533333
0.533333
0.533333
0.454167
0.612500
0.529167
0.533333
0.533333
0.533333
0.529167
0.533333
0.533333
0.533333
0.529167
0.533333
0.529167
0.529167
0.533333
0.529167
0.533333
0.529167
0.533333
0.529167
0.533333
0.529167
0.533333
0.533333
0.533333
0.529167
0.533333
0.533333
0.537500
0.529167
0.529167
0.533333
0.533333
0.533333
0.529167
0.533333
0.533333
0.529167
0.533333
0.533333
0.533333
0.533333
0.529167
0.533333
0.529167
0.537500
0.533333
0.533333
0.537500
