0.837500
0.937500
1.020833
0.358333
0.325000
0.387500
0.600000
1.212500
0.987500
0.458333
0.325000
0.416667
0.425000
0.354167
0.333333
0.341667
1.195833
0.887500
0.908333
1.041667
0.462500
0.333333
0.308333
0.325000
0.287500
0.337500
0.437500
0.362500
0.404167
0.383333
0.341667
0.337500
0.662500
0.287500
0.333333
0.329167
0.316667
1.054167
1.033333
0.445833
0.337500
0.320833
0.320833
0.354167
0.329167
0.337500
0.370833
0.383333
0.370833
0.341667
0.337500
0.350000
0.341667
0.366667
0.366667
0.370833
0.366667
0.358333
0.395833
0.375000
0.379167
0.395833
0.408333
0.366667
0.366667
0.383333
0.362500
0.404167
0.370833
0.354167
0.345833
0.337500
0.362500
0.366667
0.370833
0.366667
0.379167
0.600000
0.245833
0.300000
0.308333
0.375000
0.383333
0.341667
0.337500
0.333333
0.304167
0.329167
0.429167
0.370833
0.345833
0.341667
0.350000
0.354167
0.345833
0.345833
0.350000
0.375000
0.416667
0.395833
0.383333
0.387500
0.350000
0.350000
0.350000
0.366667
0.354167
0.354167
0.350000
0.325000
0.333333
0.362500
0.370833
0.370833
0.366667
0.375000
0.354167
0.379167
0.358333
0.362500
0.491667
0.429167
0.366667
0.329167
0.325000
0.345833
0.362500
0.375000
0.375000
0.362500
0.375000
0.375000
0.366667
0.366667
0.350000
0.358333
0.404167
0.400000
0.579167
0.495833
1.395833
1.341667
1.316667
1.362500
1.091667
0.979167
0.987500
0.975000
0.958333
0.966667
0.941667
0.908333
0.904167
1.266667
0.483333
0.358333
0.375000
0.341667
0.358333
0.450000
0.420833
0.387500
0.400000
0.387500
0.250000
0.358333
0.437500
0.345833
0.362500
0.366667
0.337500
0.404167
0.429167
0.375000
0.354167
0.354167
0.366667
0.691667
0.366667
0.420833
1.179167
1.033333
0.966667
0.979167
0.962500
1.225000
0.475000
0.341667
0.350000
0.358333
0.362500
0.345833
0.320833
0.345833
0.412500
0.420833
0.383333
0.354167
0.350000
0.345833
0.325000
0.345833
0.350000
0.333333
0.337500
0.333333
0.320833
0.304167
0.312500
0.350000
0.350000
0.358333
0.358333
0.350000
0.325000
0.337500
0.333333
0.333333
0.475000
0.383333
0.350000
0.350000
0.450000
0.383333
0.420833
0.362500
0.350000
0.362500
0.366667
0.358333
0.350000
0.329167
0.345833
0.354167
0.329167
0.354167
0.408333
0.383333
0.354167
0.350000
0.345833
0.366667
0.379167
0.404167
0.341667
0.308333
0.225000
0.495833
0.333333
0.358333
0.375000
0.391667
0.354167
0.391667
0.375000
0.354167
0.354167
0.370833
0.387500
0.358333
0.429167
0.379167
0.358333
0.358333
0.366667
0.387500
0.429167
0.341667
0.337500
0.350000
0.391667
0.383333
0.366667
0.375000
0.366667
0.375000
0.366667
0.237500
0.500000
0.233333
0.516667
0.375000
0.358333
0.325000
0.333333
0.345833
0.350000
0.337500
0.329167
0.425000
0.408333
0.366667
0.341667
0.337500
0.350000
0.354167
0.366667
0.366667
0.379167
0.395833
0.391667
0.370833
0.779167
0.362500
1.637500
1.041667
1.350000
1.220833
1.008333
1.008333
1.004167
0.962500
0.958333
0.954167
0.929167
0.866667
0.987500
1.150000
0.475000
0.358333
0.370833
0.337500
1.295833
0.462500
0.350000
0.350000
0.425000
0.370833
0.337500
0.362500
0.366667
0.395833
0.245833
0.454167
0.337500
0.312500
0.325000
0.354167
0.341667
0.341667
0.370833
0.241667
0.479167
0.345833
0.337500
0.345833
0.362500
0.383333
0.370833
0.383333
0.366667
0.345833
0.333333
0.354167
0.366667
0.358333
0.366667
0.362500
0.470833
0.650000
0.504167
0.395833
0.587500
0.525000
0.420833
0.483333
0.516667
0.620833
0.504167
0.516667
0.495833
0.404167
0.625000
0.500000
0.520833
0.500000
0.400000
0.512500
0.504167
0.633333
0.504167
0.512500
0.508333
0.500000
0.408333
0.612500
0.491667
0.495833
0.387500
0.512500
0.616667
0.520833
0.508333
0.504167
0.516667
0.379167
0.633333
0.500000
0.504167
0.512500
0.387500
0.625000
0.495833
0.512500
0.508333
0.500000
0.512500
0.383333
0.625000
0.500000
0.508333
0.504167
0.495833
0.512500
0.495833
0.508333
0.500000
0.500000
0.508333
0.495833
0.504167
0.391667
0.612500
0.504167
0.500000
0.504167
0.500000
0.504167
0.500000
0.500000
0.504167
0.504167
0.500000
0.500000
0.504167
0.504167
0.500000
0.500000
0.504167
0.504167
0.500000
0.500000
0.504167
0.500000
0.504167
0.504167
0.500000
0.504167
0.500000
0.504167
0.500000
0.504167
0.500000
0.500000
0.504167
0.500000
0.504167
0.500000
0.500000
0.500000
0.391667
0.612500
0.504167
0.500000
0.500000
0.504167
0.500000
0.500000
0.500000
0.500000
0.504167
0.500000
0.500000
0.500000
0.500000
0.500000
0.504167
0.500000
0.500000
0.500000
0.500000
0.500000
0.500000
0.500000
0.500000
0.500000
0.504167
0.500000
0.500000
0.495833
0.504167
0.500000
0.500000
0.495833
0.500000
0.500000
0.500000
0.500000
0.495833
0.500000
0.504167
0.495833
0.500000
0.500000
0.500000
0.500000
0.383333
0.616667
0.500000
0.495833
0.500000
0.500000
0.387500
0.616667
0.500000
0.387500
0.612500
0.500000
0.504167
0.387500
0.616667
0.500000
0.504167
0.500000
0.387500
0.612500
0.504167
0.500000
0.504167
0.500000
0.495833
0.504167
0.500000
0.500000
0.500000
0.500000
0.500000
0.500000
0.500000
0.500000
0.387500
0.612500
0.500000
0.504167
0.500000
0.500000
0.500000
0.500000
0.500000
0.500000
0.500000
0.500000
0.500000
0.500000
0.391667
0.608333
0.500000
0.495833
0.387500
0.612500
0.504167
0.500000
0.500000
0.383333
0.612500
0.504167
0.495833
0.500000
0.504167
0.495833
0.387500
0.612500
0.504167
0.383333
0.612500
0.504167
0.500000
0.500000
0.387500
0.608333
0.504167
0.500000
0.495833
0.387500
0.612500
0.500000
0.500000
0.500000
0.387500
0.612500
0.500000
0.500000
0.500000
0.500000
0.383333
0.616667
0.500000
0.500000
0.387500
0.608333
0.504167
0.495833
0.504167
0.500000
0.379167
0.616667
0.495833
0.504167
0.500000
0.383333
0.612500
0.500000
0.500000
0.500000
0.500000
0.495833
0.500000
0.500000
0.500000
0.495833
0.504167
0.495833
0.504167
0.379167
0.616667
0.383333
0.495833
0.616667
0.383333
0.616667
0.500000
0.383333
0.612500
0.500000
0.504167
0.491667
0.391667
0.608333
0.500000
0.500000
0.500000
0.391667
0.491667
0.616667
0.495833
0.504167
0.387500
0.604167
0.508333
0.491667
0.504167
0.383333
0.495833
0.616667
0.495833
0.504167
0.495833
0.387500
0.612500
0.495833
0.504167
0.491667
0.508333
0.375000
0.616667
0.500000
0.495833
0.504167
0.379167
0.612500
0.500000
0.495833
0.508333
0.487500
0.504167
0.491667
0.504167
0.500000
0.495833
0.504167
0.375000
0.616667
0.495833
0.500000
0.504167
0.491667
0.391667
0.487500
0.620833
0.504167
0.487500
0.395833
0.483333
0.625000
0.383333
0.612500
0.500000
0.375000
0.620833
0.491667
0.504167
0.500000
0.383333
0.612500
0.379167
0.620833
0.495833
0.495833
0.387500
0.604167
0.391667
0.608333
0.504167
0.491667
0.387500
0.612500
0.491667
0.504167
0.495833
0.500000
0.379167
0.616667
0.383333
0.612500
0.500000
0.375000
0.616667
0.495833
0.500000
0.495833
0.387500
0.491667
0.608333
0.504167
0.379167
0.616667
0.379167
0.608333
0.504167
0.491667
0.504167
0.491667
0.495833
0.383333
0.612500
0.508333
0.366667
0.625000
0.487500
0.500000
0.504167
0.487500
0.512500
0.366667
0.620833
0.495833
0.491667
0.508333
0.366667
0.620833
0.379167
0.612500
0.504167
0.487500
0.504167
0.370833
0.625000
0.500000
0.487500
0.395833
0.475000
0.629167
0.500000
0.487500
0.516667
0.354167
0.629167
0.379167
0.608333
0.512500
0.358333
0.516667
0.483333
0.616667
0.508333
0.479167
0.404167
0.475000
0.620833
0.508333
0.479167
0.516667
0.358333
0.620833
0.504167
0.483333
0.520833
0.354167
0.620833
0.387500
0.600000
0.516667
0.354167
0.629167
0.500000
0.487500
0.525000
0.345833
0.633333
0.500000
0.366667
0.637500
0.354167
0.633333
0.391667
0.583333
0.525000
0.354167
0.629167
0.400000
0.458333
0.637500
0.362500
0.620833
0.395833
0.583333
0.516667
0.362500
0.620833
0.508333
0.354167
0.633333
0.362500
0.620833
0.500000
0.366667
0.625000
0.362500
0.625000
0.495833
0.487500
0.512500
0.354167
0.633333
0.504167
0.475000
0.412500
0.458333
0.512500
0.625000
0.470833
0.520833
0.358333
0.616667
0.512500
0.354167
0.637500
0.358333
0.616667
0.508333
0.358333
0.633333
0.358333
0.508333
0.616667
0.479167
0.520833
0.350000
0.629167
0.391667
0.583333
0.525000
0.354167
0.629167
0.508333
0.350000
0.633333
0.358333
0.620833
0.391667
0.470833
0.633333
0.358333
0.625000
0.512500
0.466667
0.520833
0.354167
0.616667
0.520833
0.345833
0.637500
0.362500
0.612500
0.520833
0.341667
0.633333
0.370833
0.608333
0.395833
0.466667
0.637500
0.366667
0.616667
0.400000
0.454167
0.641667
0.366667
0.612500
0.400000
0.454167
0.633333
0.370833
0.612500
0.508333
0.350000
0.629167
0.366667
0.616667
0.504167
0.470833
0.512500
0.362500
0.625000
0.520833
0.333333
0.629167
0.491667
0.491667
0.516667
0.345833
0.633333
0.375000
0.600000
0.516667
0.345833
0.629167
0.495833
0.362500
0.633333
0.350000
0.629167
0.383333
0.591667
0.404167
0.462500
0.633333
1.779167
1.225000
1.070833
0.358333
1.395833
0.900000
1.033333
0.941667
0.929167
0.908333
0.925000
0.908333
0.904167
0.895833
0.812500
0.970833
0.900000
0.883333
0.887500
0.879167
0.795833
0.966667
0.362500
0.804167
0.450000
0.475000
0.366667
1.175000
0.350000
1.258333
0.462500
1.241667
0.466667
1.229167
0.475000
1.220833
0.479167
1.212500
0.483333
1.208333
0.483333
1.204167
0.483333
1.200000
0.487500
1.195833
0.491667
1.187500
0.491667
1.191667
1.008333
0.804167
0.879167
0.466667
1.162500
0.491667
0.704167
0.554167
1.379167
0.495833
0.608333
0.566667
0.554167
1.183333
1.070833
0.929167
0.995833
0.804167
0.891667
0.975000
0.891667
0.787500
0.975000
0.787500
0.975000
0.879167
0.791667
0.875000
0.975000
0.879167
0.787500
0.966667
0.883333
0.787500
0.883333
0.879167
0.883333
0.870833
0.887500
0.879167
0.887500
0.883333
0.883333
0.879167
0.462500
1.204167
0.491667
0.654167
0.604167
1.087500
1.154167
1.158333
0.812500
1.283333
0.512500
1.162500
0.608333
0.508333
0.770833
0.670833
0.600000
1.120833
0.770833
0.825000
1.270833
0.504167
0.612500
1.666667
0.650000
0.570833
2.050000
0.945833
1.158333
0.787500
0.708333
1.566667
0.866667
0.908333
0.600000
1.091667
0.504167
0.708333
0.570833
0.783333
1.362500
0.800000
0.708333
1.541667
0.862500
0.916667
0.895833
0.904167
0.891667
0.900000
0.900000
0.895833
0.895833
0.891667
0.470833
1.225000
0.500000
1.183333
0.504167
1.166667
0.504167
1.175000
0.616667
1.058333
0.504167
1.166667
0.508333
1.162500
0.504167
0.750000
0.437500
0.425000
1.362500
1.125000
0.916667
0.645833
1.183333
0.670833
0.579167
1.558333
0.808333
0.733333
1.800000
0.937500
0.837500
0.991667
0.670833
0.537500
0.650000
0.625000
1.229167
0.654167
0.566667
1.620833
0.804167
