0.316667
0.545833
0.275000
0.283333
0.275000
0.554167
0.566667
0.570833
0.562500
0.562500
0.566667
0.562500
0.558333
0.566667
0.570833
0.562500
0.558333
0.562500
0.562500
0.562500
0.558333
0.570833
0.558333
0.558333
0.562500
0.562500
0.562500
0.558333
0.562500
0.558333
0.558333
0.562500
0.570833
0.554167
0.325000
0.254167
0.550000
0.558333
0.558333
0.562500
0.337500
0.229167
0.562500
0.558333
0.558333
0.562500
0.562500
0.558333
0.570833
0.558333
0.558333
0.558333
0.562500
0.558333
0.554167
0.562500
0.562500
0.554167
0.558333
0.720833
0.404167
0.554167
0.554167
0.562500
0.558333
0.558333
0.554167
0.566667
0.558333
0.554167
0.554167
0.570833
0.554167
0.554167
0.558333
0.558333
0.554167
0.558333
0.562500
0.554167
0.554167
0.558333
0.554167
0.554167
0.554167
0.562500
0.554167
0.554167
0.558333
0.562500
0.550000
0.554167
0.558333
0.562500
0.554167
0.554167
0.554167
0.558333
0.554167
0.554167
0.554167
0.562500
0.275000
0.279167
0.550000
0.558333
0.562500
0.554167
0.554167
0.558333
0.554167
0.554167
0.554167
0.562500
0.554167
0.554167
0.558333
0.562500
0.554167
0.554167
0.554167
0.562500
0.554167
0.550000
0.558333
0.558333
0.558333
0.550000
0.562500
0.554167
0.554167
0.562500
0.558333
0.558333
1.008333
0.679167
0.550000
0.558333
0.562500
0.558333
0.558333
0.566667
0.554167
0.558333
0.558333
0.562500
0.558333
0.558333
0.562500
0.558333
0.558333
0.558333
0.566667
0.558333
0.554167
0.562500
0.558333
0.558333
0.562500
0.562500
0.554167
0.562500
0.566667
0.558333
0.558333
0.562500
0.562500
0.558333
0.562500
0.558333
0.570833
0.562500
0.558333
0.566667
0.570833
0.562500
0.562500
0.570833
0.570833
0.566667
0.562500
0.466667
0.670833
0.562500
0.575000
0.520833
0.716667
0.475000
0.554167
0.558333
0.362500
0.208333
0.416667
0.275000
0.433333
0.562500
0.566667
0.570833
0.562500
0.562500
0.566667
0.566667
0.558333
0.558333
0.566667
0.566667
0.558333
0.558333
0.558333
0.566667
0.558333
0.558333
0.554167
0.500000
0.341667
0.287500
0.554167
0.558333
0.558333
0.570833
0.554167
0.554167
0.558333
0.562500
0.554167
0.554167
0.558333
0.329167
0.387500
0.404167
0.604167
0.504167
0.370833
0.750000
0.254167
0.300000
0.670833
0.187500
0.254167
0.558333
0.554167
0.550000
0.558333
0.558333
0.550000
0.554167
0.558333
0.562500
0.554167
0.550000
0.558333
0.320833
0.237500
0.554167
0.550000
0.554167
0.554167
0.287500
0.270833
0.545833
0.558333
0.270833
0.287500
0.550000
0.550000
0.550000
0.437500
0.404167
0.266667
0.558333
0.545833
0.550000
0.558333
0.554167
0.541667
0.570833
0.554167
0.550000
1.112500
0.554167
0.554167
0.558333
0.562500
0.554167
0.554167
0.558333
0.562500
0.558333
0.554167
0.562500
0.562500
0.558333
0.558333
0.675000
0.158333
0.845833
0.429167
0.333333
0.308333
0.254167
0.912500
0.562500
0.566667
0.558333
0.554167
0.562500
0.562500
0.558333
0.562500
0.562500
0.558333
0.554167
0.262500
0.312500
0.558333
0.558333
0.450000
0.666667
0.866667
0.258333
0.558333
0.545833
0.345833
0.770833
0.558333
0.554167
0.566667
0.558333
0.554167
0.558333
0.562500
0.562500
0.554167
0.558333
0.562500
0.558333
0.554167
0.562500
0.562500
0.554167
0.558333
0.566667
0.562500
0.554167
0.454167
0.670833
0.554167
0.466667
0.662500
0.558333
0.566667
0.562500
0.558333
0.562500
0.562500
0.558333
0.562500
0.562500
0.562500
0.558333
0.562500
0.562500
0.554167
0.566667
0.562500
0.554167
0.558333
0.445833
0.675000
0.558333
0.562500
0.383333
0.741667
0.562500
0.558333
0.570833
0.570833
0.566667
0.562500
0.570833
0.562500
0.562500
0.641667
0.187500
0.308333
0.566667
0.562500
0.562500
0.566667
0.570833
0.558333
0.562500
0.562500
0.566667
0.558333
0.562500
0.566667
0.558333
0.558333
0.562500
0.562500
0.558333
0.558333
0.570833
0.558333
0.554167
0.566667
0.562500
0.554167
0.562500
0.562500
0.554167
0.558333
0.566667
0.204167
0.462500
0.175000
0.266667
0.304167
0.258333
0.554167
0.554167
0.562500
0.558333
0.554167
0.550000
0.458333
0.658333
0.554167
0.554167
0.562500
0.554167
0.554167
0.554167
0.562500
0.554167
0.554167
0.558333
0.558333
0.558333
0.554167
0.554167
0.562500
0.554167
0.483333
0.595833
0.591667
0.558333
0.554167
0.558333
0.562500
0.554167
0.558333
0.562500
0.562500
0.562500
0.558333
0.558333
0.566667
0.570833
0.566667
0.558333
0.570833
0.570833
0.566667
0.562500
0.566667
0.566667
0.566667
0.562500
0.512500
0.458333
0.212500
1.079167
0.566667
0.566667
0.562500
0.570833
0.566667
0.558333
0.570833
0.562500
0.558333
0.283333
0.300000
0.550000
0.412500
0.700000
0.416667
0.141667
0.212500
0.354167
0.266667
0.287500
0.562500
0.279167
0.283333
0.320833
0.458333
0.900000
0.558333
0.566667
0.558333
0.558333
0.554167
0.562500
0.479167
0.645833
0.550000
0.308333
0.254167
0.562500
0.562500
0.562500
0.345833
0.783333
0.562500
0.570833
0.562500
0.566667
0.566667
0.683333
0.450000
0.558333
0.575000
0.566667
0.570833
0.575000
0.566667
0.566667
0.400000
0.737500
0.570833
0.570833
0.566667
0.570833
0.570833
0.570833
0.562500
0.575000
0.566667
0.570833
0.566667
0.566667
0.575000
0.566667
0.566667
0.579167
0.570833
0.566667
0.579167
0.570833
0.566667
0.579167
0.570833
0.570833
0.579167
0.570833
0.570833
0.583333
0.575000
0.575000
0.579167
0.575000
0.575000
0.575000
0.579167
0.570833
0.575000
0.583333
0.575000
0.566667
0.579167
0.575000
0.570833
0.570833
0.579167
0.570833
0.570833
0.570833
0.579167
0.570833
0.570833
0.570833
0.579167
0.570833
0.566667
0.579167
0.570833
0.566667
0.570833
0.579167
0.570833
0.575000
0.566667
0.575000
0.575000
0.566667
0.575000
0.583333
0.570833
0.575000
0.575000
0.583333
0.575000
0.575000
0.575000
0.587500
0.579167
0.570833
0.579167
0.587500
0.579167
0.575000
0.579167
0.583333
0.575000
0.575000
0.579167
0.583333
0.570833
0.575000
0.579167
0.575000
0.570833
0.579167
0.570833
0.570833
0.575000
0.566667
0.570833
0.570833
0.245833
0.329167
0.566667
0.570833
0.575000
0.570833
0.562500
0.575000
0.566667
0.562500
0.566667
0.575000
0.562500
0.562500
0.566667
0.570833
0.566667
0.558333
0.570833
0.562500
0.562500
0.562500
0.570833
0.562500
0.558333
0.570833
0.562500
0.562500
0.562500
0.566667
0.562500
0.562500
0.570833
0.558333
0.558333
0.566667
0.566667
0.562500
0.562500
0.566667
0.562500
0.562500
0.570833
0.566667
0.566667
0.562500
0.575000
0.562500
0.570833
0.579167
0.566667
0.562500
0.566667
0.570833
0.562500
0.525000
0.616667
0.562500
0.570833
0.570833
0.720833
0.441667
0.587500
0.591667
0.116667
0.379167
0.320833
0.483333
0.483333
0.600000
0.600000
0.708333
0.291667
0.816667
0.595833
0.533333
0.654167
0.641667
0.525000
0.583333
0.579167
0.575000
0.579167
0.579167
0.620833
0.454167
0.287500
0.908333
0.562500
0.258333
0.866667
0.570833
0.554167
0.550000
0.566667
0.554167
0.554167
0.537500
0.583333
0.558333
0.566667
0.554167
0.558333
0.562500
0.558333
0.558333
0.562500
0.554167
0.558333
0.562500
0.554167
0.562500
0.562500
0.558333
0.554167
0.566667
0.554167
0.558333
0.562500
0.554167
0.554167
0.558333
0.266667
0.391667
0.450000
0.550000
0.550000
0.558333
0.554167
0.550000
0.554167
0.554167
0.550000
0.554167
0.558333
0.550000
0.550000
0.558333
0.550000
0.545833
0.558333
0.550000
0.545833
0.550000
0.550000
0.545833
0.554167
0.554167
0.550000
0.545833
0.550000
0.545833
0.545833
0.554167
0.554167
0.550000
0.545833
0.550000
0.554167
0.545833
0.550000
0.558333
0.550000
0.545833
0.554167
0.554167
0.550000
0.550000
0.558333
0.550000
0.545833
0.554167
0.554167
0.550000
0.550000
0.558333
0.554167
0.550000
0.554167
0.562500
0.554167
0.554167
0.562500
0.554167
0.550000
0.558333
0.558333
0.554167
0.554167
0.562500
0.554167
0.550000
0.558333
0.562500
0.554167
0.554167
0.562500
0.554167
0.554167
0.558333
0.562500
0.554167
0.554167
0.566667
0.554167
0.545833
0.558333
0.558333
0.550000
0.562500
0.554167
0.554167
0.558333
0.558333
0.554167
0.554167
0.562500
0.550000
0.550000
0.558333
0.550000
0.550000
0.550000
0.562500
0.550000
0.550000
0.554167
0.550000
0.550000
0.550000
0.558333
0.550000
0.550000
0.550000
0.558333
0.550000
0.550000
0.558333
0.550000
0.550000
0.554167
0.562500
0.550000
0.554167
0.554167
0.558333
0.550000
0.554167
0.558333
0.554167
0.554167
0.562500
0.554167
0.550000
0.562500
0.554167
0.550000
0.558333
0.558333
0.554167
0.558333
0.566667
0.558333
0.554167
0.566667
0.558333
0.558333
0.562500
0.558333
0.558333
0.562500
0.562500
0.558333
0.562500
0.566667
0.558333
0.562500
0.570833
0.562500
0.554167
0.570833
0.562500
0.558333
0.566667
0.570833
0.562500
0.562500
0.566667
0.562500
0.558333
0.566667
0.570833
0.558333
0.575000
0.183333
0.375000
0.283333
0.283333
0.558333
0.558333
0.570833
0.558333
0.558333
0.558333
0.554167
0.566667
0.554167
0.558333
0.558333
0.554167
0.558333
0.558333
0.554167
0.558333
0.558333
0.550000
0.562500
0.558333
0.550000
0.566667
0.554167
0.554167
0.562500
0.554167
0.558333
0.562500
0.554167
0.554167
0.558333
0.550000
0.341667
0.216667
0.554167
0.550000
0.562500
0.554167
0.550000
0.562500
0.287500
0.266667
0.550000
0.562500
0.550000
0.550000
0.562500
0.554167
0.545833
0.558333
0.554167
0.550000
0.558333
0.550000
0.554167
0.554167
0.558333
0.558333
0.554167
0.562500
0.554167
0.550000
0.562500
0.554167
0.554167
0.558333
0.554167
0.554167
0.558333
0.558333
0.554167
0.562500
0.554167
0.558333
0.562500
0.562500
0.220833
0.904167
0.558333
0.558333
0.562500
0.570833
0.558333
0.562500
0.566667
0.562500
0.558333
0.570833
0.562500
0.558333
0.566667
0.575000
0.562500
0.562500
0.570833
0.566667
0.562500
0.562500
0.575000
0.566667
0.562500
0.570833
0.566667
0.562500
0.566667
0.575000
0.566667
0.545833
0.587500
0.562500
0.562500
0.570833
0.562500
0.558333
0.575000
0.562500
0.558333
0.570833
0.562500
0.558333
0.566667
0.562500
0.558333
0.562500
0.566667
0.562500
0.558333
0.566667
0.558333
0.554167
0.570833
0.554167
0.558333
0.558333
0.562500
0.550000
0.562500
0.558333
0.558333
0.554167
0.566667
0.554167
0.550000
0.566667
0.554167
0.554167
0.554167
0.554167
0.558333
0.558333
0.558333
0.558333
0.554167
0.566667
0.554167
0.554167
0.562500
0.558333
0.554167
0.562500
0.554167
0.554167
0.566667
0.558333
0.554167
0.566667
0.558333
0.558333
0.558333
0.570833
0.558333
0.554167
0.570833
0.558333
0.554167
0.566667
0.558333
0.554167
0.566667
0.558333
0.558333
0.562500
0.558333
0.554167
0.562500
0.558333
0.554167
0.562500
0.558333
0.554167
0.566667
0.558333
0.554167
0.566667
0.558333
0.554167
0.562500
0.558333
0.554167
0.562500
0.558333
0.554167
0.562500
0.554167
0.554167
0.566667
0.554167
0.558333
0.562500
0.562500
0.558333
0.570833
0.558333
0.558333
