0.545833
0.550000
0.545833
0.545833
0.545833
0.520833
0.566667
0.545833
0.545833
0.550000
0.545833
0.541667
0.545833
0.550000
0.550000
0.545833
0.550000
0.545833
0.550000
0.550000
0.545833
0.545833
0.545833
0.545833
0.550000
0.545833
0.550000
0.545833
0.545833
0.550000
0.545833
0.545833
0.550000
0.550000
0.550000
0.545833
0.545833
0.545833
0.545833
0.550000
0.545833
0.545833
0.550000
0.545833
0.550000
0.545833
0.550000
0.550000
0.550000
0.550000
0.550000
0.545833
0.550000
0.550000
0.550000
0.550000
0.545833
0.545833
0.545833
0.554167
0.545833
0.550000
0.550000
0.550000
0.550000
0.545833
0.550000
0.495833
0.600000
0.550000
0.550000
0.550000
0.550000
0.550000
0.545833
0.550000
0.545833
0.550000
0.550000
0.545833
0.545833
0.550000
0.550000
0.545833
0.545833
0.550000
0.545833
0.550000
0.545833
0.550000
0.550000
0.545833
0.545833
0.545833
0.545833
0.550000
0.545833
0.545833
0.550000
0.545833
0.550000
0.550000
0.550000
0.545833
0.545833
0.550000
0.545833
0.545833
0.545833
0.550000
0.550000
0.545833
0.550000
0.545833
0.545833
0.545833
0.545833
0.545833
0.550000
0.545833
0.545833
0.550000
0.545833
0.545833
0.545833
0.545833
0.545833
0.545833
0.545833
0.550000
0.550000
0.545833
0.550000
0.550000
0.520833
0.562500
0.550000
0.545833
0.550000
0.545833
0.550000
0.545833
0.550000
0.550000
0.545833
0.550000
0.550000
0.550000
0.545833
0.550000
0.554167
0.545833
0.550000
0.545833
0.550000
0.550000
0.550000
0.550000
0.550000
0.550000
0.545833
0.550000
0.550000
0.554167
0.550000
0.545833
0.550000
0.545833
0.554167
0.550000
0.550000
0.545833
0.554167
0.545833
0.550000
0.554167
0.550000
0.545833
0.550000
0.550000
0.550000
0.550000
0.545833
0.550000
0.550000
0.554167
0.550000
0.550000
0.550000
0.550000
0.550000
0.554167
0.550000
0.550000
0.554167
0.550000
0.550000
0.550000
0.550000
0.545833
0.550000
0.554167
0.550000
0.550000
0.550000
0.525000
0.562500
0.554167
0.545833
0.550000
0.554167
0.550000
0.545833
0.550000
0.550000
0.550000
0.558333
0.545833
0.550000
0.550000
0.550000
0.545833
0.550000
0.550000
0.550000
0.550000
0.550000
0.520833
0.566667
0.550000
0.550000
0.545833
0.550000
0.545833
0.550000
0.550000
0.545833
0.550000
0.545833
0.550000
0.550000
0.550000
0.545833
0.550000
0.545833
0.554167
0.545833
0.550000
0.545833
0.550000
0.545833
0.550000
0.550000
0.550000
0.545833
0.545833
0.550000
0.550000
0.550000
0.545833
0.545833
0.545833
0.550000
0.545833
0.545833
0.550000
0.545833
0.541667
0.550000
0.550000
0.545833
0.545833
0.550000
0.545833
0.550000
0.550000
0.545833
0.545833
0.545833
0.550000
0.550000
0.545833
0.545833
0.545833
0.545833
0.550000
0.550000
0.545833
0.545833
0.550000
0.550000
0.545833
0.550000
1.104167
0.554167
0.550000
0.545833
0.545833
0.550000
0.550000
0.550000
0.545833
0.550000
0.550000
0.550000
0.550000
0.550000
0.550000
0.545833
0.550000
0.550000
0.550000
0.550000
0.550000
0.550000
0.554167
0.550000
0.550000
0.550000
0.550000
0.558333
0.550000
0.550000
0.550000
0.550000
0.550000
0.550000
0.554167
0.550000
0.550000
0.550000
0.550000
0.554167
0.550000
0.550000
0.550000
0.550000
0.550000
0.550000
0.550000
0.545833
0.545833
0.550000
0.550000
0.550000
0.550000
0.545833
0.554167
0.550000
0.550000
0.550000
0.550000
0.550000
0.550000
0.550000
0.545833
0.550000
0.550000
0.550000
0.550000
0.550000
0.545833
0.550000
0.554167
0.550000
0.550000
0.554167
0.550000
0.545833
0.550000
0.554167
0.550000
0.550000
0.554167
0.550000
0.550000
0.550000
0.550000
0.550000
0.550000
0.525000
0.566667
0.554167
0.554167
0.545833
0.550000
0.550000
0.550000
0.550000
0.550000
0.554167
0.550000
0.550000
0.554167
0.550000
0.554167
0.550000
0.550000
0.550000
0.550000
0.550000
0.550000
0.550000
0.550000
0.550000
0.550000
0.550000
0.550000
0.554167
0.550000
0.554167
0.550000
0.550000
0.550000
0.550000
0.554167
0.545833
0.550000
0.554167
0.550000
0.550000
0.550000
0.545833
0.550000
0.550000
0.545833
0.554167
0.541667
0.554167
0.545833
0.554167
0.545833
0.550000
0.550000
0.545833
0.550000
0.550000
0.545833
0.550000
0.545833
0.550000
0.700000
0.391667
0.545833
0.545833
0.545833
0.550000
0.545833
0.545833
0.550000
0.537500
0.550000
0.545833
0.545833
0.550000
0.545833
0.545833
0.545833
0.550000
0.541667
0.545833
0.545833
0.545833
0.541667
0.545833
0.545833
0.545833
0.550000
0.541667
0.545833
0.545833
0.541667
0.545833
0.545833
0.545833
0.541667
0.545833
0.541667
0.545833
0.545833
0.545833
0.541667
0.545833
0.550000
0.541667
0.545833
0.541667
0.545833
0.545833
0.545833
0.537500
0.545833
0.545833
0.545833
0.545833
0.541667
0.545833
0.545833
0.545833
0.537500
0.550000
0.541667
0.537500
0.550000
0.545833
0.545833
0.537500
0.550000
0.545833
0.541667
0.537500
1.312500
0.320833
0.541667
0.537500
0.545833
0.308333
0.579167
0.737500
0.541667
0.420833
0.666667
0.545833
0.541667
0.545833
0.337500
0.204167
0.541667
0.541667
0.541667
0.541667
0.479167
0.587500
0.550000
0.541667
0.537500
0.541667
0.541667
0.541667
0.537500
0.541667
0.541667
0.320833
0.754167
0.541667
0.545833
0.541667
0.533333
0.541667
0.541667
0.541667
0.533333
0.541667
0.541667
0.537500
0.537500
0.512500
0.554167
0.537500
0.537500
0.529167
0.545833
0.537500
0.529167
0.545833
0.541667
0.541667
0.550000
0.537500
0.545833
0.545833
0.529167
0.554167
0.545833
0.550000
0.537500
0.550000
0.541667
0.541667
0.545833
0.541667
0.541667
0.537500
0.541667
0.541667
0.541667
0.533333
0.537500
0.545833
0.541667
0.537500
0.537500
0.537500
0.541667
0.537500
0.537500
0.533333
0.537500
0.537500
0.537500
0.537500
0.541667
0.533333
0.537500
0.541667
0.537500
0.533333
0.537500
0.541667
0.537500
0.533333
0.537500
0.541667
0.537500
0.537500
0.541667
0.537500
0.533333
0.541667
0.537500
0.541667
0.537500
0.545833
0.541667
0.537500
0.541667
0.541667
0.537500
0.541667
0.541667
0.537500
0.537500
0.537500
0.529167
0.541667
0.537500
0.537500
0.537500
0.537500
0.537500
0.537500
0.537500
0.533333
0.537500
0.537500
0.537500
0.541667
0.504167
0.375000
0.733333
0.537500
0.541667
0.533333
0.537500
0.537500
0.537500
0.537500
0.537500
0.537500
0.537500
0.537500
0.533333
0.537500
0.533333
0.537500
0.533333
0.537500
0.533333
0.541667
0.533333
0.537500
0.537500
0.533333
0.537500
0.537500
0.533333
0.533333
0.537500
0.537500
0.533333
0.537500
0.533333
0.541667
0.312500
0.220833
0.533333
0.537500
0.533333
0.541667
0.537500
0.533333
0.533333
0.537500
0.541667
0.533333
0.537500
0.533333
0.533333
0.537500
0.533333
0.533333
0.537500
0.533333
0.533333
0.533333
0.541667
0.537500
0.533333
0.516667
0.387500
0.704167
0.537500
0.537500
0.537500
0.533333
0.533333
0.537500
0.533333
0.537500
0.533333
0.541667
0.537500
0.537500
0.537500
0.537500
0.537500
0.541667
0.537500
0.537500
0.537500
0.541667
0.537500
0.533333
0.537500
0.537500
0.537500
0.537500
0.541667
0.537500
0.537500
0.537500
0.537500
0.537500
0.537500
0.541667
0.537500
0.541667
0.537500
0.537500
0.541667
0.537500
0.541667
0.533333
0.541667
0.533333
0.541667
0.541667
0.537500
0.541667
0.537500
0.537500
0.541667
0.533333
0.541667
0.533333
0.541667
0.537500
0.541667
0.533333
0.537500
0.537500
0.537500
0.537500
0.541667
0.537500
0.537500
0.541667
0.541667
0.541667
0.541667
0.537500
0.537500
0.541667
0.537500
0.541667
0.541667
0.541667
0.541667
0.541667
0.541667
0.537500
0.541667
0.541667
0.537500
0.537500
0.545833
0.541667
0.537500
0.537500
0.537500
0.541667
0.537500
0.541667
0.533333
0.541667
0.541667
0.537500
0.541667
0.537500
0.537500
0.537500
0.541667
0.541667
0.541667
0.537500
0.541667
0.545833
0.537500
0.541667
0.541667
0.537500
0.537500
0.541667
0.537500
0.541667
0.537500
0.545833
0.537500
0.541667
0.541667
0.541667
0.541667
0.537500
0.541667
0.537500
0.537500
0.541667
0.533333
0.541667
0.541667
0.541667
0.537500
0.541667
0.541667
0.541667
0.537500
0.537500
0.541667
0.541667
0.537500
0.541667
0.541667
0.520833
0.554167
0.545833
0.541667
0.541667
0.541667
0.541667
0.537500
0.545833
0.537500
0.541667
0.537500
0.545833
0.541667
0.541667
0.545833
0.537500
0.541667
0.541667
0.545833
0.541667
0.541667
0.545833
0.545833
0.541667
0.541667
0.541667
0.541667
0.545833
0.541667
0.541667
0.541667
0.541667
0.541667
0.545833
0.541667
0.541667
0.545833
0.541667
0.545833
0.541667
0.541667
0.541667
0.541667
0.545833
0.541667
0.541667
0.545833
0.541667
0.545833
0.541667
0.541667
0.541667
0.545833
0.541667
0.541667
0.541667
0.545833
0.545833
0.541667
0.541667
0.545833
0.545833
0.541667
0.545833
0.541667
0.545833
0.537500
0.545833
0.541667
0.541667
0.541667
0.545833
0.545833
0.545833
0.541667
0.545833
0.550000
0.541667
0.550000
0.541667
0.545833
0.545833
0.541667
0.545833
0.545833
0.541667
0.545833
0.541667
0.550000
0.545833
0.545833
0.545833
0.541667
0.545833
0.545833
0.541667
0.545833
0.541667
0.545833
0.545833
0.545833
0.550000
0.541667
0.545833
0.541667
0.545833
0.545833
0.541667
0.550000
0.545833
0.550000
0.545833
0.545833
0.550000
0.545833
0.545833
0.545833
0.550000
0.545833
0.545833
0.545833
0.550000
0.541667
0.545833
0.545833
0.545833
0.550000
0.550000
0.545833
0.545833
0.550000
0.545833
0.545833
0.541667
0.545833
0.545833
0.545833
0.545833
0.545833
0.550000
0.545833
0.550000
0.541667
0.545833
0.545833
0.550000
0.541667
0.545833
0.545833
0.545833
0.550000
0.545833
0.541667
0.545833
0.550000
0.545833
0.545833
0.550000
0.541667
0.550000
0.545833
0.550000
0.550000
0.545833
0.550000
0.550000
0.545833
0.545833
0.545833
0.554167
0.545833
0.550000
0.545833
0.545833
0.554167
0.545833
0.550000
0.545833
0.545833
0.550000
0.545833
0.550000
0.545833
0.545833
0.550000
0.550000
0.550000
0.545833
0.550000
0.550000
0.545833
0.550000
0.550000
0.545833
0.554167
0.550000
0.545833
0.550000
0.550000
0.550000
0.550000
0.545833
0.550000
0.550000
0.545833
0.550000
0.545833
0.550000
0.545833
0.541667
0.550000
0.550000
0.550000
0.550000
0.545833
0.550000
0.550000
0.554167
0.545833
0.545833
0.554167
0.550000
0.545833
0.545833
0.550000
0.550000
0.550000
0.550000
0.545833
0.550000
0.550000
0.554167
0.550000
0.550000
0.550000
0.550000
0.550000
0.541667
0.550000
0.550000
0.550000
0.550000
0.541667
0.554167
0.550000
0.550000
1.091667
0.554167
0.545833
0.545833
0.550000
0.545833
0.545833
0.550000
0.545833
0.545833
0.550000
0.550000
0.545833
0.550000
0.541667
0.550000
0.550000
0.550000
0.545833
0.541667
0.554167
0.545833
0.545833
0.550000
0.541667
0.550000
0.550000
0.545833
0.541667
0.550000
0.550000
0.545833
0.545833
0.541667
0.545833
0.545833
0.545833
0.541667
0.541667
0.550000
0.545833
0.545833
0.550000
0.541667
0.550000
