0.520833
0.516667
0.516667
0.516667
0.516667
0.520833
0.516667
0.516667
0.520833
0.516667
0.512500
0.520833
0.516667
0.516667
0.516667
0.516667
0.516667
0.516667
0.512500
0.516667
0.516667
0.516667
0.512500
0.516667
0.520833
0.520833
0.512500
0.516667
0.516667
0.525000
0.520833
0.525000
0.516667
0.525000
0.520833
0.525000
0.525000
0.520833
0.525000
0.525000
0.525000
0.525000
0.520833
0.533333
0.520833
0.525000
0.520833
0.525000
0.525000
0.520833
0.520833
0.520833
0.520833
0.525000
0.520833
0.520833
0.520833
0.520833
0.525000
0.525000
0.525000
0.529167
0.520833
0.520833
0.520833
0.520833
0.520833
0.516667
0.516667
0.520833
0.516667
0.516667
0.516667
0.512500
0.520833
0.516667
0.516667
0.516667
0.516667
0.520833
0.525000
0.516667
0.520833
0.520833
0.520833
0.520833
0.525000
0.516667
0.520833
0.525000
0.516667
0.520833
0.516667
0.520833
0.525000
0.520833
0.520833
0.520833
0.525000
0.525000
0.529167
0.525000
0.529167
0.537500
0.529167
0.525000
0.533333
0.529167
0.537500
0.529167
0.529167
0.533333
0.533333
0.525000
0.529167
0.529167
0.529167
0.525000
0.533333
0.525000
0.529167
0.533333
0.529167
0.525000
0.529167
0.529167
0.533333
0.533333
0.525000
0.533333
0.545833
0.541667
0.537500
0.537500
0.541667
0.541667
0.537500
0.533333
0.533333
0.533333
0.533333
0.533333
0.537500
0.529167
0.533333
0.537500
0.541667
0.537500
0.537500
0.533333
0.537500
0.533333
0.537500
0.541667
0.533333
0.533333
0.533333
0.529167
0.537500
0.529167
0.533333
0.529167
0.529167
0.529167
0.529167
0.529167
0.529167
0.529167
0.529167
0.529167
0.525000
0.525000
0.529167
0.525000
0.525000
0.525000
0.529167
0.533333
0.520833
0.533333
0.525000
0.533333
0.529167
0.525000
0.520833
0.525000
0.529167
0.525000
0.529167
0.533333
0.533333
0.533333
0.537500
0.537500
0.529167
0.545833
0.545833
0.537500
0.545833
0.533333
0.537500
0.541667
0.537500
0.533333
0.537500
0.545833
0.537500
0.537500
0.537500
0.537500
0.533333
0.533333
0.533333
0.533333
0.537500
0.533333
0.537500
0.529167
0.529167
0.533333
0.537500
0.533333
0.533333
0.529167
0.529167
0.529167
0.533333
0.525000
0.533333
0.529167
0.533333
0.529167
0.533333
0.533333
0.533333
0.541667
0.533333
0.529167
0.529167
0.533333
0.529167
0.525000
0.529167
0.529167
0.525000
0.533333
0.529167
0.529167
0.529167
0.525000
0.529167
0.537500
0.533333
0.533333
0.529167
0.533333
0.533333
0.533333
0.529167
0.533333
0.529167
0.533333
0.529167
0.533333
0.529167
0.529167
0.529167
0.529167
0.533333
0.533333
0.529167
0.529167
0.533333
0.533333
0.537500
0.533333
0.533333
0.537500
0.533333
0.529167
0.533333
0.533333
0.529167
0.537500
0.529167
0.537500
0.533333
0.533333
0.537500
0.550000
0.537500
0.537500
0.537500
0.537500
0.537500
0.533333
0.537500
0.533333
0.533333
0.533333
0.533333
0.529167
0.529167
0.533333
0.537500
0.533333
0.541667
0.533333
0.533333
0.537500
0.541667
0.533333
0.541667
0.537500
0.533333
0.533333
0.537500
0.533333
0.533333
0.529167
0.533333
0.533333
0.537500
0.533333
0.537500
0.537500
0.537500
0.541667
0.529167
0.533333
0.541667
0.537500
0.537500
0.533333
0.541667
0.537500
0.541667
0.537500
0.537500
0.541667
0.541667
0.545833
0.545833
0.545833
0.545833
0.545833
0.545833
0.541667
0.550000
0.545833
0.545833
0.545833
0.541667
0.550000
0.550000
0.550000
0.550000
0.541667
0.550000
0.541667
0.545833
0.545833
0.554167
0.554167
0.550000
0.558333
0.550000
0.554167
0.550000
0.550000
0.554167
0.545833
0.541667
0.545833
0.541667
0.537500
0.545833
0.537500
0.541667
0.554167
0.558333
0.554167
0.550000
0.554167
0.550000
0.558333
0.554167
0.550000
0.554167
0.558333
1.108333
0.550000
0.545833
0.550000
0.545833
1.087500
0.545833
0.545833
0.541667
0.541667
0.537500
0.545833
0.537500
0.545833
0.541667
0.545833
0.550000
0.541667
0.550000
0.545833
0.550000
0.545833
0.550000
0.550000
0.550000
0.545833
0.550000
0.545833
0.554167
0.562500
0.550000
0.550000
0.541667
0.545833
0.541667
0.537500
0.545833
0.537500
0.545833
0.537500
0.545833
0.541667
0.550000
0.545833
0.550000
0.550000
0.550000
0.545833
0.545833
0.550000
0.545833
0.541667
0.550000
0.541667
0.545833
0.550000
0.541667
0.545833
0.545833
0.541667
0.545833
0.541667
0.550000
0.550000
0.545833
0.541667
0.545833
0.545833
0.541667
0.537500
0.541667
0.545833
0.541667
0.541667
0.545833
0.537500
0.545833
0.550000
0.550000
0.545833
0.541667
0.550000
0.545833
1.083333
0.545833
0.545833
0.545833
0.554167
0.554167
0.558333
0.554167
0.545833
0.550000
0.550000
0.545833
0.541667
0.550000
0.541667
0.541667
0.545833
0.541667
0.541667
0.541667
1.091667
0.545833
0.545833
0.545833
0.545833
0.541667
0.550000
0.554167
0.545833
0.550000
1.104167
0.550000
0.550000
0.554167
0.545833
0.550000
0.550000
0.550000
0.541667
0.558333
0.562500
0.558333
0.562500
0.554167
0.562500
0.558333
0.550000
0.554167
0.558333
0.558333
0.550000
0.558333
0.554167
0.550000
0.558333
0.554167
0.554167
0.550000
0.558333
0.554167
0.550000
0.562500
0.558333
0.554167
0.554167
0.550000
0.550000
0.554167
0.550000
0.545833
0.550000
0.554167
0.550000
0.550000
0.550000
0.554167
0.554167
0.550000
0.545833
0.550000
0.554167
0.545833
0.554167
0.545833
0.554167
0.545833
0.550000
0.541667
0.554167
0.554167
0.550000
0.550000
0.554167
0.550000
0.550000
0.545833
0.541667
0.554167
0.550000
0.550000
0.545833
0.550000
0.550000
0.545833
0.545833
0.541667
1.095833
0.545833
0.545833
0.545833
0.554167
0.550000
0.554167
0.550000
0.550000
0.545833
0.554167
0.545833
0.545833
0.550000
0.554167
0.550000
0.550000
0.550000
0.554167
0.554167
0.554167
0.554167
0.550000
0.562500
0.558333
0.541667
0.550000
0.550000
0.554167
0.554167
0.545833
0.558333
0.408333
0.141667
0.579167
0.345833
0.270833
0.262500
0.345833
0.304167
0.287500
0.591667
0.433333
0.316667
0.404167
0.120833
0.437500
0.425000
0.137500
0.562500
0.562500
0.558333
0.545833
0.545833
0.541667
0.545833
0.537500
0.533333
0.537500
0.537500
0.533333
0.529167
0.529167
0.525000
0.529167
0.533333
0.529167
0.529167
0.533333
0.533333
0.537500
0.545833
0.566667
0.587500
0.566667
0.554167
0.554167
0.550000
0.554167
0.541667
0.541667
0.537500
0.533333
0.533333
0.533333
0.529167
0.529167
0.529167
0.525000
0.529167
0.537500
0.529167
0.533333
0.529167
0.533333
0.537500
0.533333
0.533333
0.533333
0.529167
0.533333
0.533333
0.545833
0.541667
0.541667
0.537500
0.533333
0.541667
0.541667
0.533333
0.541667
0.537500
0.541667
0.533333
0.537500
0.545833
0.533333
0.537500
0.541667
0.541667
0.541667
0.533333
0.537500
0.537500
0.541667
0.533333
0.537500
0.541667
0.541667
0.533333
0.529167
0.533333
0.537500
0.537500
0.529167
0.529167
0.537500
0.533333
0.533333
0.529167
0.520833
0.537500
0.537500
0.545833
0.533333
0.541667
0.545833
0.545833
0.550000
0.545833
0.541667
0.545833
0.545833
0.550000
0.537500
0.533333
0.533333
0.537500
0.537500
0.529167
0.525000
0.537500
0.533333
0.537500
0.529167
0.533333
0.541667
0.545833
0.537500
0.537500
0.533333
0.545833
0.541667
0.537500
0.537500
0.537500
0.537500
0.545833
0.545833
0.537500
0.541667
0.541667
0.550000
0.545833
0.537500
0.537500
0.545833
0.545833
0.545833
0.541667
0.550000
0.550000
0.550000
0.537500
0.537500
0.541667
0.545833
0.537500
0.537500
0.537500
0.541667
0.537500
0.533333
0.533333
0.533333
0.533333
0.533333
0.533333
0.529167
0.529167
0.541667
0.537500
1.070833
0.533333
0.537500
0.545833
0.537500
0.533333
0.541667
0.545833
0.537500
0.541667
0.533333
0.529167
0.537500
0.537500
0.545833
0.529167
0.537500
0.545833
0.541667
1.087500
0.533333
0.550000
0.666667
0.650000
0.237500
0.545833
0.466667
0.625000
0.612500
1.200000
0.579167
0.562500
0.562500
0.558333
0.545833
0.520833
0.516667
0.520833
0.525000
0.516667
0.516667
0.529167
0.533333
0.520833
0.525000
0.537500
0.541667
0.533333
0.533333
0.541667
0.541667
0.541667
0.537500
0.533333
0.545833
0.545833
0.541667
0.541667
0.545833
0.554167
0.545833
0.541667
0.537500
0.541667
0.537500
0.537500
0.533333
0.533333
0.533333
0.537500
0.529167
0.529167
0.533333
0.541667
0.550000
0.550000
0.541667
0.537500
0.595833
0.187500
0.425000
0.362500
0.220833
0.562500
0.554167
0.700000
0.395833
0.583333
0.583333
0.545833
0.541667
0.537500
0.525000
0.533333
0.537500
0.525000
0.520833
0.525000
0.520833
0.520833
0.525000
0.520833
0.512500
0.520833
0.516667
0.520833
0.512500
0.512500
0.512500
0.512500
0.520833
0.516667
0.512500
0.525000
0.529167
0.529167
0.520833
0.525000
0.525000
0.525000
0.520833
0.516667
0.525000
0.525000
0.529167
0.520833
0.512500
0.529167
0.533333
0.537500
0.537500
0.529167
0.533333
0.533333
0.533333
0.533333
0.537500
0.533333
0.525000
0.525000
0.516667
0.520833
0.537500
0.537500
0.529167
0.529167
0.529167
0.529167
0.537500
0.525000
0.525000
0.525000
0.525000
0.533333
0.516667
0.525000
0.412500
0.120833
0.683333
0.120833
0.241667
0.525000
0.566667
0.579167
0.533333
0.537500
0.529167
0.529167
0.516667
0.512500
0.520833
0.516667
0.512500
0.512500
0.520833
0.512500
0.512500
0.525000
0.516667
0.516667
0.516667
0.520833
0.516667
0.512500
0.516667
0.516667
0.520833
0.520833
0.520833
0.520833
0.520833
0.512500
0.520833
0.516667
0.516667
0.512500
0.508333
0.512500
0.516667
0.508333
0.508333
0.512500
0.512500
0.516667
0.512500
0.512500
0.516667
0.516667
0.520833
0.512500
0.516667
0.516667
0.516667
0.516667
0.516667
0.420833
0.612500
0.225000
0.291667
0.520833
0.533333
0.529167
0.520833
0.525000
0.520833
0.520833
0.520833
0.525000
0.512500
0.508333
0.516667
0.508333
0.508333
0.508333
0.512500
0.516667
0.516667
0.512500
0.508333
0.516667
0.512500
0.512500
0.512500
0.504167
0.508333
0.520833
0.516667
0.525000
0.529167
0.520833
0.550000
0.566667
0.566667
0.550000
0.537500
0.533333
0.529167
0.525000
0.520833
0.512500
0.516667
0.512500
0.520833
0.516667
0.520833
0.512500
0.516667
0.512500
0.520833
0.516667
0.520833
0.516667
0.525000
0.529167
0.558333
0.541667
0.537500
0.541667
0.525000
0.520833
0.529167
0.529167
0.516667
0.529167
0.516667
0.516667
0.512500
0.520833
0.516667
0.512500
0.512500
0.516667
0.520833
0.512500
0.512500
0.512500
0.520833
0.512500
0.516667
0.529167
0.525000
0.529167
0.516667
0.525000
0.533333
0.533333
0.533333
0.529167
0.525000
0.525000
0.529167
0.525000
0.525000
0.516667
0.525000
0.525000
0.520833
0.520833
0.525000
0.529167
0.529167
0.520833
0.525000
0.529167
0.541667
0.529167
0.525000
0.529167
0.529167
0.533333
0.529167
0.529167
0.545833
0.537500
0.537500
0.529167
0.529167
0.533333
0.529167
0.529167
0.529167
0.525000
0.537500
0.529167
0.537500
0.525000
0.537500
0.529167
0.533333
0.525000
0.529167
0.537500
0.533333
0.533333
0.533333
0.525000
0.533333
0.529167
0.545833
0.850000
0.220833
0.562500
0.566667
0.550000
0.554167
0.541667
0.529167
0.525000
0.520833
0.520833
0.516667
0.520833
0.512500
0.508333
0.508333
0.516667
0.516667
