0.545833
0.550000
0.545833
0.545833
0.550000
0.545833
0.545833
0.550000
0.545833
0.545833
0.550000
0.545833
0.545833
0.550000
0.545833
0.541667
0.545833
0.550000
0.545833
0.550000
0.545833
0.550000
0.545833
0.550000
0.545833
0.550000
0.545833
0.545833
0.545833
0.545833
0.550000
0.545833
0.545833
0.541667
0.541667
0.483333
0.616667
0.545833
0.545833
0.550000
0.545833
0.545833
0.545833
0.545833
0.545833
0.545833
0.545833
0.545833
0.545833
0.545833
0.545833
0.545833
0.545833
0.545833
0.545833
0.545833
0.545833
0.545833
0.545833
0.550000
0.545833
0.545833
0.545833
0.545833
0.545833
0.545833
0.550000
0.545833
0.545833
0.545833
0.550000
0.545833
0.545833
0.545833
0.545833
0.550000
0.541667
0.545833
0.487500
0.612500
0.545833
0.550000
0.545833
0.550000
0.545833
0.545833
0.550000
0.545833
0.545833
0.545833
0.550000
0.545833
0.545833
0.545833
0.550000
0.545833
0.545833
0.545833
0.545833
0.545833
0.541667
0.550000
0.545833
0.550000
0.545833
0.545833
0.550000
0.545833
0.545833
0.545833
0.545833
0.550000
0.545833
0.545833
0.545833
0.545833
0.545833
0.545833
0.545833
0.550000
0.545833
0.545833
0.545833
0.545833
0.545833
0.550000
0.545833
0.545833
0.545833
0.545833
0.550000
0.545833
0.545833
0.545833
0.550000
0.545833
0.545833
0.545833
0.550000
0.545833
0.545833
0.545833
0.545833
0.545833
0.550000
0.545833
0.550000
0.545833
0.550000
0.545833
0.550000
0.545833
0.545833
0.550000
0.545833
0.545833
0.545833
0.550000
0.545833
0.545833
0.545833
0.545833
0.545833
0.545833
0.550000
0.545833
0.545833
0.545833
0.545833
0.550000
0.545833
0.545833
0.545833
0.545833
0.550000
0.545833
0.545833
0.550000
0.545833
0.541667
0.475000
0.620833
0.550000
0.545833
0.550000
0.545833
0.550000
0.545833
0.550000
0.545833
0.545833
0.550000
0.545833
0.545833
0.545833
0.545833
0.550000
0.545833
0.545833
0.545833
0.545833
0.550000
0.545833
0.545833
0.545833
0.550000
0.545833
0.545833
0.550000
0.545833
0.545833
0.550000
0.541667
0.545833
0.550000
0.550000
0.550000
0.545833
0.550000
0.550000
0.545833
0.550000
0.545833
0.550000
0.545833
0.545833
0.550000
0.545833
0.550000
0.545833
0.545833
0.550000
0.545833
0.550000
0.545833
0.550000
0.545833
0.550000
0.545833
0.545833
0.550000
0.545833
0.550000
0.541667
0.550000
0.550000
0.550000
0.550000
0.545833
0.550000
0.550000
0.545833
0.550000
0.545833
0.550000
0.545833
0.550000
0.545833
0.550000
0.545833
0.545833
0.550000
0.550000
0.545833
0.550000
0.545833
0.550000
0.545833
0.550000
0.545833
0.550000
0.545833
0.550000
0.545833
0.550000
0.545833
0.550000
0.550000
0.545833
0.550000
0.545833
0.550000
0.545833
0.550000
0.550000
0.545833
0.550000
0.545833
0.550000
0.441667
0.654167
0.545833
0.545833
0.550000
0.550000
0.550000
0.504167
0.591667
0.550000
0.550000
0.550000
0.545833
0.550000
0.550000
0.545833
0.550000
0.545833
0.550000
0.545833
0.550000
0.545833
0.550000
0.545833
0.550000
0.545833
0.550000
0.545833
0.550000
0.545833
0.550000
0.545833
0.545833
0.550000
0.545833
0.550000
0.545833
0.545833
0.550000
0.545833
0.545833
0.545833
0.545833
0.550000
0.545833
0.550000
0.550000
0.545833
0.550000
0.545833
0.545833
0.550000
0.545833
0.550000
0.545833
0.545833
0.550000
0.545833
0.545833
0.550000
0.545833
0.550000
0.545833
0.550000
0.545833
0.545833
0.550000
0.550000
0.545833
0.550000
0.545833
0.550000
0.545833
0.550000
0.550000
0.545833
0.550000
0.545833
0.545833
0.545833
0.550000
0.550000
0.550000
0.550000
0.550000
0.550000
0.550000
0.550000
0.550000
0.545833
0.550000
0.550000
0.545833
0.550000
0.550000
0.545833
0.550000
0.545833
0.550000
0.545833
0.550000
0.545833
0.550000
0.545833
0.550000
0.550000
0.545833
0.550000
0.545833
0.550000
0.545833
0.550000
0.550000
0.545833
0.550000
0.550000
0.545833
0.550000
0.550000
0.545833
0.550000
0.550000
0.545833
0.545833
0.550000
0.554167
0.550000
0.550000
0.545833
0.550000
0.550000
0.550000
0.550000
0.550000
0.545833
0.550000
0.550000
0.545833
0.550000
0.545833
0.550000
0.550000
0.545833
0.550000
0.545833
0.550000
0.545833
0.550000
0.545833
0.550000
0.545833
0.550000
0.545833
0.545833
0.550000
0.545833
0.550000
0.545833
0.550000
0.545833
0.550000
0.545833
0.550000
0.550000
0.545833
0.550000
0.550000
0.545833
0.545833
0.487500
0.612500
0.550000
0.550000
0.545833
0.550000
0.550000
0.550000
0.550000
0.545833
0.550000
0.550000
0.545833
0.550000
0.550000
0.545833
0.550000
0.550000
0.545833
0.550000
0.550000
0.545833
0.545833
0.545833
0.554167
0.545833
0.550000
0.550000
0.550000
0.545833
0.550000
0.545833
0.550000
0.545833
0.550000
0.545833
0.550000
0.545833
0.550000
0.545833
0.550000
0.545833
0.550000
0.545833
0.550000
0.545833
0.550000
0.545833
0.550000
0.545833
0.550000
0.545833
0.550000
0.550000
0.545833
0.550000
0.545833
0.550000
0.545833
0.550000
0.550000
0.545833
0.550000
0.550000
0.545833
0.550000
0.545833
0.545833
0.554167
0.545833
0.550000
0.550000
0.550000
0.550000
0.550000
0.550000
0.550000
0.545833
0.550000
0.550000
0.545833
0.550000
0.545833
0.550000
0.545833
0.550000
0.550000
0.545833
0.550000
0.545833
0.550000
0.545833
0.550000
0.545833
0.550000
0.545833
0.550000
0.545833
0.550000
0.545833
0.550000
0.550000
0.541667
0.545833
0.454167
0.645833
0.550000
0.550000
0.545833
0.550000
0.550000
0.545833
0.550000
0.545833
0.550000
0.545833
0.545833
0.545833
0.550000
0.545833
0.545833
0.550000
0.545833
0.545833
0.550000
0.545833
0.545833
0.545833
0.550000
0.545833
0.545833
0.541667
0.550000
0.550000
0.545833
0.550000
0.550000
0.545833
0.550000
0.545833
0.550000
0.545833
0.550000
0.545833
0.545833
0.545833
0.545833
0.491667
0.600000
0.550000
0.545833
0.545833
0.550000
0.545833
0.545833
0.550000
0.545833
0.545833
0.545833
0.545833
0.545833
0.545833
0.545833
0.545833
0.545833
0.545833
0.545833
0.545833
0.545833
0.545833
0.545833
0.550000
0.545833
0.545833
0.545833
0.545833
0.545833
0.545833
0.550000
0.545833
0.545833
0.545833
0.545833
0.545833
0.550000
0.541667
0.541667
0.550000
0.550000
0.550000
0.545833
0.550000
0.545833
0.550000
0.545833
0.545833
0.550000
0.545833
0.550000
0.545833
0.545833
0.550000
0.545833
0.545833
0.545833
0.550000
0.545833
0.545833
0.550000
0.545833
0.545833
0.550000
0.545833
0.545833
0.550000
0.545833
0.550000
0.545833
0.550000
0.545833
0.550000
0.545833
0.550000
0.545833
0.550000
0.550000
0.545833
0.550000
0.545833
0.550000
0.545833
0.550000
0.545833
0.545833
0.550000
0.550000
0.545833
0.550000
0.550000
0.545833
0.558333
0.545833
0.554167
0.554167
0.545833
0.550000
0.545833
0.550000
0.545833
0.550000
0.550000
0.504167
0.587500
0.545833
0.550000
0.550000
0.550000
0.533333
0.562500
0.550000
0.545833
0.550000
0.545833
0.550000
0.550000
0.545833
0.550000
0.545833
0.550000
0.545833
0.550000
0.545833
0.550000
0.545833
0.550000
0.545833
0.550000
0.545833
0.550000
0.545833
0.550000
0.545833
0.545833
0.545833
0.487500
0.608333
0.550000
0.550000
0.545833
0.550000
0.550000
0.545833
0.545833
0.550000
0.545833
0.545833
0.545833
0.550000
0.545833
0.545833
0.545833
0.545833
0.545833
0.541667
0.466667
0.633333
0.550000
0.545833
0.545833
0.550000
0.545833
0.545833
0.550000
0.545833
0.545833
0.545833
0.545833
0.550000
0.545833
0.545833
0.545833
0.545833
0.550000
0.545833
0.545833
0.545833
0.545833
0.545833
0.545833
0.541667
0.550000
0.550000
0.545833
0.550000
0.545833
0.550000
0.545833
0.545833
0.550000
0.545833
0.545833
0.550000
0.545833
0.545833
0.545833
0.545833
0.550000
0.545833
0.545833
0.550000
0.545833
0.545833
0.545833
0.550000
0.545833
0.470833
0.625000
0.545833
0.545833
0.550000
0.545833
0.545833
0.545833
0.550000
0.545833
0.550000
0.545833
0.545833
0.550000
0.545833
0.550000
0.545833
0.550000
0.545833
0.545833
0.550000
0.545833
0.550000
0.545833
0.545833
0.545833
0.483333
0.612500
0.550000
0.545833
0.550000
0.550000
0.545833
0.550000
0.545833
0.545833
0.550000
0.545833
0.545833
0.550000
0.545833
0.545833
0.545833
0.545833
0.550000
0.545833
0.545833
0.541667
0.545833
0.550000
0.545833
0.545833
0.550000
0.545833
0.545833
0.550000
0.545833
0.545833
0.545833
0.550000
0.545833
0.545833
0.545833
0.545833
0.545833
0.550000
0.545833
0.545833
0.545833
0.545833
0.545833
0.545833
0.545833
0.545833
0.550000
0.545833
0.545833
0.545833
0.545833
0.545833
0.545833
0.550000
0.545833
0.545833
0.545833
0.545833
0.550000
0.545833
0.545833
0.545833
0.550000
0.545833
0.545833
0.545833
0.550000
0.545833
0.545833
0.550000
0.545833
0.545833
0.550000
0.545833
0.545833
0.550000
0.545833
0.545833
0.550000
0.541667
0.545833
0.550000
0.550000
0.550000
0.545833
0.550000
0.545833
0.550000
0.545833
0.550000
0.545833
0.550000
0.545833
0.545833
0.545833
0.550000
0.545833
0.545833
0.545833
0.545833
0.545833
0.545833
0.550000
0.545833
0.545833
0.545833
0.545833
0.545833
0.545833
0.541667
0.541667
0.550000
0.545833
0.545833
0.550000
0.545833
0.545833
0.550000
0.545833
0.545833
0.545833
0.545833
0.550000
0.545833
0.545833
0.545833
0.545833
0.545833
0.545833
0.550000
0.545833
0.545833
0.545833
0.550000
0.545833
0.545833
0.550000
0.545833
0.545833
0.550000
0.545833
0.545833
0.550000
0.545833
0.550000
0.545833
0.550000
0.545833
0.550000
0.545833
0.545833
0.425000
0.675000
0.545833
0.545833
0.550000
0.545833
0.550000
0.545833
0.550000
0.545833
0.550000
0.545833
0.550000
0.545833
0.550000
0.541667
0.483333
0.616667
0.550000
0.550000
0.550000
0.550000
0.545833
0.550000
0.550000
0.545833
0.550000
0.550000
0.545833
0.550000
0.545833
0.550000
0.545833
0.550000
0.545833
0.545833
0.550000
0.545833
0.545833
0.550000
0.545833
0.545833
0.550000
0.545833
0.550000
0.545833
0.550000
0.545833
0.550000
0.545833
0.550000
0.545833
0.550000
0.550000
0.545833
0.550000
0.545833
0.550000
0.545833
0.550000
0.550000
0.545833
0.550000
0.545833
0.550000
0.550000
0.545833
0.550000
0.550000
0.545833
0.550000
0.550000
0.545833
0.550000
0.550000
0.545833
0.550000
0.550000
0.550000
0.545833
0.545833
0.545833
0.454167
0.650000
0.550000
0.550000
0.550000
0.550000
0.550000
0.550000
0.545833
0.550000
0.550000
0.550000
0.545833
0.550000
0.550000
0.541667
0.545833
0.550000
0.550000
0.550000
0.545833
0.550000
0.550000
0.545833
0.550000
0.545833
0.550000
0.545833
0.550000
0.545833
0.545833
0.545833
0.550000
0.545833
0.545833
0.545833
0.545833
0.550000
0.545833
0.545833
0.550000
0.545833
0.545833
0.545833
0.550000
0.545833
0.545833
0.550000
0.545833
0.545833
0.550000
0.545833
0.545833
0.545833
0.550000
0.545833
0.545833
0.550000
0.545833
0.545833
0.550000
0.545833
0.550000
0.545833
0.550000
