0.362500
0.325000
0.333333
0.341667
0.345833
0.329167
0.341667
0.316667
0.366667
0.345833
0.325000
0.358333
0.358333
0.333333
0.316667
0.333333
0.370833
0.425000
0.362500
0.329167
0.354167
0.350000
0.333333
0.383333
0.375000
0.383333
0.354167
0.325000
0.308333
0.329167
0.345833
0.354167
0.345833
0.337500
0.325000
0.316667
0.345833
0.362500
0.354167
0.325000
0.345833
0.350000
0.325000
0.312500
0.320833
0.316667
0.325000
0.345833
0.362500
0.362500
0.341667
0.329167
0.308333
0.337500
0.341667
0.329167
0.312500
0.333333
0.341667
0.358333
0.350000
0.350000
0.345833
0.362500
0.350000
0.362500
0.366667
0.304167
0.329167
0.325000
0.304167
0.325000
0.341667
0.312500
0.308333
0.329167
0.412500
0.341667
0.362500
0.354167
0.329167
0.337500
0.350000
0.337500
0.312500
0.350000
0.345833
0.329167
0.312500
0.479167
0.366667
0.316667
0.287500
0.312500
0.529167
0.466667
0.375000
0.337500
0.325000
0.308333
0.308333
0.337500
0.320833
0.608333
0.354167
0.325000
0.341667
0.325000
0.325000
0.362500
0.379167
0.341667
0.320833
0.312500
0.341667
0.358333
0.312500
0.333333
0.320833
0.312500
0.333333
0.337500
0.337500
0.337500
0.329167
0.325000
0.391667
0.429167
0.375000
0.341667
0.333333
0.333333
0.320833
0.320833
0.325000
0.337500
0.370833
0.350000
0.329167
0.333333
0.366667
0.316667
0.316667
0.354167
0.337500
0.300000
0.283333
0.320833
0.358333
0.437500
0.350000
0.329167
0.333333
0.329167
0.316667
0.312500
0.337500
0.354167
0.341667
0.350000
0.345833
0.366667
0.375000
0.337500
0.329167
0.329167
0.325000
0.312500
0.333333
0.345833
0.320833
0.329167
0.337500
0.337500
0.329167
0.333333
0.337500
0.329167
0.333333
0.341667
0.354167
0.350000
0.341667
0.354167
0.333333
0.341667
0.345833
0.341667
0.337500
0.341667
0.341667
0.325000
0.308333
0.316667
0.337500
0.362500
0.395833
0.354167
0.333333
0.329167
0.333333
0.350000
0.358333
0.362500
0.333333
0.341667
0.329167
0.329167
0.341667
0.345833
0.329167
0.329167
0.329167
0.333333
0.333333
0.329167
0.320833
0.333333
0.333333
0.333333
0.329167
0.375000
0.362500
0.345833
0.345833
0.325000
0.337500
0.529167
0.366667
0.333333
0.341667
0.345833
0.358333
0.362500
0.325000
0.325000
0.329167
0.341667
0.320833
0.312500
0.325000
0.329167
0.325000
0.320833
0.383333
0.383333
0.354167
0.345833
0.358333
0.358333
0.541667
0.354167
0.337500
0.341667
0.312500
0.333333
0.333333
0.325000
0.325000
0.325000
0.333333
0.329167
0.329167
0.316667
0.354167
0.420833
0.350000
0.341667
0.370833
0.341667
0.333333
0.329167
0.312500
0.350000
0.387500
0.333333
0.325000
0.329167
0.337500
0.533333
0.383333
0.337500
0.341667
0.337500
0.312500
0.358333
0.333333
0.362500
0.345833
0.337500
0.329167
0.354167
0.350000
0.316667
0.295833
0.312500
0.337500
0.333333
0.329167
0.354167
0.366667
0.337500
0.337500
0.333333
0.345833
0.350000
0.333333
0.337500
0.337500
0.304167
0.291667
0.329167
0.329167
0.345833
0.366667
0.354167
0.337500
0.350000
0.379167
0.341667
0.345833
0.525000
0.366667
0.562500
0.345833
0.279167
0.333333
0.345833
0.379167
0.375000
0.329167
0.320833
0.325000
0.337500
0.325000
0.345833
0.341667
0.345833
0.329167
0.308333
0.341667
0.370833
0.337500
0.337500
0.341667
0.350000
0.354167
0.354167
0.354167
0.350000
0.345833
0.325000
0.341667
0.333333
0.316667
0.341667
0.329167
0.329167
0.345833
0.341667
0.366667
0.412500
0.366667
0.316667
0.316667
0.416667
0.354167
0.320833
0.308333
0.345833
0.366667
0.391667
0.341667
0.312500
0.304167
0.329167
0.341667
0.325000
0.350000
0.358333
0.329167
0.316667
0.362500
0.358333
0.383333
0.504167
0.350000
0.333333
0.333333
0.329167
0.325000
0.366667
0.445833
0.345833
0.316667
0.370833
0.345833
0.329167
0.345833
0.325000
0.320833
0.316667
0.325000
0.345833
0.325000
0.375000
0.362500
0.337500
0.345833
0.341667
0.325000
0.333333
0.375000
0.337500
0.325000
0.350000
0.341667
0.337500
0.404167
0.375000
0.358333
0.337500
0.304167
0.304167
0.350000
0.383333
0.395833
0.350000
0.366667
0.450000
0.391667
0.383333
0.375000
0.345833
0.350000
0.337500
0.337500
0.400000
0.370833
0.358333
0.354167
0.562500
0.358333
0.333333
0.345833
0.329167
0.420833
0.508333
0.420833
0.358333
0.325000
0.316667
0.304167
0.358333
0.358333
0.350000
0.350000
0.308333
0.333333
0.350000
0.329167
0.329167
0.358333
0.333333
0.325000
0.354167
0.329167
0.333333
0.333333
0.358333
0.404167
0.400000
0.520833
0.345833
0.325000
0.333333
0.329167
0.329167
0.329167
0.341667
0.329167
0.316667
0.362500
0.425000
0.633333
0.375000
0.329167
0.312500
0.316667
0.350000
0.345833
0.337500
0.329167
0.316667
0.341667
0.341667
0.329167
0.308333
0.325000
0.354167
0.345833
0.475000
0.370833
0.329167
0.329167
0.304167
0.329167
0.366667
0.345833
0.325000
0.295833
0.341667
0.383333
0.475000
0.354167
0.354167
0.400000
0.341667
0.320833
0.312500
0.300000
0.295833
0.333333
0.350000
0.350000
0.362500
0.345833
0.341667
0.341667
0.341667
0.325000
0.325000
0.350000
0.341667
0.345833
0.345833
0.333333
0.333333
0.333333
0.350000
0.341667
0.362500
0.345833
0.325000
0.316667
0.362500
0.358333
0.320833
0.304167
0.329167
0.333333
0.354167
0.345833
0.350000
0.341667
0.345833
0.316667
0.300000
0.333333
0.358333
0.383333
0.366667
0.345833
0.325000
0.341667
0.350000
0.320833
0.350000
0.333333
0.337500
0.350000
0.320833
0.358333
0.545833
0.362500
1.458333
1.212500
1.429167
0.787500
1.083333
0.966667
0.937500
0.912500
0.887500
0.850000
0.754167
1.379167
0.745833
0.733333
1.270833
0.850000
0.729167
0.737500
1.262500
0.850000
0.725000
0.737500
1.245833
0.866667
0.720833
0.733333
0.737500
1.250000
0.858333
0.737500
0.741667
0.733333
0.725000
0.908333
1.104167
0.933333
0.933333
0.887500
0.866667
0.875000
0.858333
0.791667
0.620833
0.970833
0.750000
0.737500
1.158333
0.483333
1.254167
0.925000
0.575000
0.450000
0.500000
0.400000
0.487500
0.604167
0.587500
0.812500
0.654167
0.583333
0.579167
0.570833
0.608333
0.687500
0.666667
0.475000
0.350000
0.295833
0.287500
0.304167
0.283333
0.320833
0.308333
0.312500
0.325000
0.316667
0.291667
0.279167
0.279167
0.337500
0.320833
0.345833
0.370833
0.383333
0.358333
0.404167
0.354167
0.337500
0.337500
0.333333
0.337500
0.337500
0.337500
0.329167
0.320833
0.391667
0.366667
0.325000
0.350000
0.345833
0.329167
0.329167
0.337500
0.320833
0.233333
0.354167
0.341667
0.441667
0.337500
0.345833
0.354167
0.408333
0.379167
0.341667
0.341667
0.333333
0.300000
0.308333
0.379167
0.325000
0.320833
0.337500
0.325000
0.333333
0.437500
0.362500
0.337500
0.350000
0.333333
0.312500
0.304167
0.304167
0.408333
0.358333
0.341667
1.116667
0.425000
1.408333
0.441667
1.337500
0.437500
1.312500
0.754167
0.495833
0.370833
0.320833
0.329167
0.612500
1.437500
0.762500
0.512500
0.391667
0.341667
1.200000
0.437500
1.029167
0.745833
0.400000
0.391667
0.379167
0.345833
0.333333
0.341667
0.325000
0.329167
0.341667
0.350000
0.350000
0.333333
0.358333
0.350000
0.341667
0.337500
0.350000
0.358333
0.350000
0.341667
0.316667
0.325000
0.358333
0.387500
0.341667
0.329167
0.329167
0.329167
0.337500
0.333333
0.333333
0.320833
0.312500
0.320833
0.350000
0.375000
0.362500
0.358333
0.337500
0.329167
0.337500
0.387500
0.358333
0.387500
0.354167
0.420833
0.525000
0.362500
0.320833
0.312500
0.312500
0.420833
0.366667
0.337500
0.333333
0.337500
0.316667
0.308333
0.358333
0.341667
0.304167
0.304167
0.354167
0.333333
0.333333
0.345833
0.508333
0.391667
0.358333
0.337500
0.333333
0.341667
0.333333
0.350000
0.366667
0.354167
0.587500
0.358333
0.433333
0.391667
0.354167
0.358333
0.337500
0.320833
0.325000
0.337500
0.362500
0.312500
0.291667
0.333333
0.337500
0.345833
0.341667
0.325000
0.337500
0.358333
0.333333
0.320833
0.333333
0.425000
0.437500
0.370833
0.329167
0.300000
0.304167
0.333333
0.345833
0.325000
0.308333
0.295833
0.320833
0.316667
0.316667
0.329167
0.316667
0.333333
0.350000
0.316667
0.279167
0.308333
0.316667
0.354167
0.366667
0.345833
0.375000
0.370833
0.345833
0.312500
0.304167
0.329167
0.341667
0.320833
0.425000
0.516667
0.362500
0.333333
0.395833
0.412500
0.362500
0.341667
0.329167
0.320833
0.366667
0.358333
0.358333
0.337500
0.312500
0.350000
0.354167
0.308333
0.320833
0.341667
0.325000
0.304167
0.329167
0.458333
0.345833
0.287500
0.316667
0.325000
0.316667
0.325000
0.341667
0.341667
0.329167
0.337500
0.483333
0.358333
0.333333
0.370833
0.345833
0.337500
0.345833
0.341667
0.550000
0.429167
0.483333
0.362500
0.337500
0.362500
0.375000
0.404167
0.350000
0.337500
0.325000
0.354167
0.358333
0.412500
0.379167
0.337500
0.312500
0.354167
0.441667
0.350000
0.354167
0.354167
0.516667
0.354167
0.316667
0.333333
0.325000
0.316667
0.329167
0.341667
0.329167
0.333333
0.337500
0.358333
0.362500
0.337500
0.350000
0.337500
0.320833
0.329167
0.375000
0.412500
0.466667
0.333333
0.333333
0.337500
0.300000
0.320833
0.325000
0.329167
0.370833
0.366667
0.337500
0.329167
0.350000
0.354167
0.337500
0.333333
0.333333
0.333333
0.333333
0.395833
0.370833
0.329167
0.329167
0.337500
0.337500
0.329167
0.337500
0.337500
0.333333
0.320833
0.337500
0.341667
0.337500
0.358333
0.337500
0.308333
0.329167
0.358333
0.358333
0.379167
0.333333
0.337500
0.354167
0.362500
0.325000
0.308333
0.329167
0.345833
0.362500
0.362500
0.337500
0.308333
0.350000
0.383333
1.745833
0.979167
0.750000
1.404167
0.862500
0.891667
1.150000
0.908333
0.850000
0.754167
1.375000
0.750000
0.895833
1.183333
0.891667
0.908333
0.741667
0.737500
0.741667
1.250000
0.858333
0.733333
0.733333
1.254167
1.450000
1.479167
1.812500
1.766667
1.750000
1.729167
1.725000
0.866667
1.691667
0.791667
0.850000
0.445833
1.583333
0.750000
0.608333
1.341667
0.766667
0.608333
0.650000
0.575000
0.733333
0.687500
0.679167
0.675000
1.529167
0.779167
0.691667
0.629167
0.629167
0.412500
0.425000
0.350000
0.287500
0.283333
0.329167
0.475000
0.354167
0.320833
0.337500
0.316667
0.354167
0.362500
0.341667
0.329167
0.341667
0.341667
0.354167
0.350000
0.375000
0.379167
0.337500
0.329167
0.329167
0.333333
0.366667
0.379167
0.454167
0.479167
0.350000
0.304167
0.329167
0.425000
0.400000
0.337500
0.312500
0.316667
0.308333
0.329167
0.354167
0.337500
0.337500
0.354167
0.354167
0.345833
0.350000
0.341667
0.345833
0.345833
0.408333
0.358333
0.312500
0.279167
0.475000
0.625000
1.470833
0.445833
1.520833
0.750000
0.691667
0.462500
0.358333
0.366667
0.345833
0.329167
0.562500
0.375000
0.325000
0.325000
0.316667
0.304167
0.295833
0.333333
0.545833
0.400000
0.370833
0.345833
0.345833
0.579167
0.379167
0.341667
0.341667
0.387500
0.345833
0.325000
0.345833
0.354167
0.395833
0.341667
0.370833
0.370833
0.325000
0.325000
0.329167
0.308333
0.316667
0.341667
0.362500
0.358333
0.337500
0.312500
0.308333
0.333333
0.308333
0.304167
0.333333
0.312500
0.333333
0.341667
0.312500
0.320833
0.354167
0.366667
1.233333
0.879167
1.162500
0.962500
0.962500
0.908333
0.862500
0.770833
0.750000
0.758333
0.745833
1.412500
0.450000
1.033333
0.437500
1.091667
0.833333
0.779167
1.275000
0.583333
1.191667
0.929167
0.912500
0.891667
0.866667
0.475000
1.170833
0.587500
0.554167
0.620833
0.766667
0.770833
1.308333
0.733333
0.579167
0.608333
0.595833
0.604167
0.616667
0.608333
0.595833
0.595833
0.600000
0.625000
0.583333
0.612500
0.625000
0.604167
0.620833
0.562500
0.729167
0.666667
0.612500
0.575000
0.662500
0.637500
0.662500
0.616667
0.637500
0.641667
0.654167
0.391667
0.441667
0.341667
0.300000
0.329167
0.354167
0.329167
0.341667
0.520833
0.245833
0.333333
0.329167
0.312500
0.320833
0.454167
0.370833
0.341667
0.412500
0.370833
0.337500
0.333333
0.329167
0.320833
0.329167
0.400000
0.354167
0.325000
0.312500
0.308333
0.316667
0.320833
0.333333
0.341667
0.329167
0.333333
0.329167
0.395833
0.370833
0.333333
0.316667
0.345833
0.366667
0.366667
0.341667
0.325000
0.316667
0.312500
0.329167
0.350000
0.341667
0.329167
0.379167
0.387500
0.341667
0.333333
0.341667
0.337500
0.337500
0.329167
0.329167
0.354167
0.341667
0.345833
0.345833
0.329167
0.345833
0.333333
0.341667
0.337500
0.354167
0.341667
0.325000
0.316667
0.329167
0.333333
0.325000
0.325000
0.341667
0.350000
0.387500
0.354167
0.337500
0.345833
0.333333
0.329167
0.329167
0.333333
0.329167
0.325000
0.333333
0.333333
0.333333
0.333333
0.337500
0.325000
0.308333
0.333333
0.345833
0.312500
0.325000
0.345833
0.337500
0.337500
0.333333
0.366667
0.445833
0.354167
0.320833
0.320833
0.333333
0.341667
0.354167
0.345833
0.337500
0.320833
0.333333
0.337500
0.329167
0.329167
0.337500
0.333333
0.316667
0.329167
0.337500
0.329167
0.337500
0.312500
0.325000
0.341667
0.329167
0.337500
0.337500
0.329167
0.329167
0.308333
0.325000
0.341667
0.333333
0.362500
0.362500
0.337500
0.337500
0.333333
0.329167
0.329167
0.337500
0.337500
0.312500
0.329167
0.350000
0.341667
0.333333
0.329167
0.312500
0.325000
0.329167
0.320833
0.387500
0.370833
0.333333
0.362500
0.391667
0.362500
0.341667
0.350000
0.341667
0.366667
0.316667
0.304167
0.333333
0.316667
0.333333
0.370833
0.366667
0.329167
0.333333
0.345833
0.341667
0.329167
0.304167
0.320833
0.341667
0.333333
0.337500
0.337500
0.379167
0.395833
0.354167
0.325000
0.308333
0.300000
0.312500
0.358333
0.391667
0.345833
0.337500
0.333333
0.329167
0.316667
0.320833
0.333333
0.320833
0.325000
0.333333
0.325000
0.312500
0.333333
0.350000
0.337500
0.316667
0.329167
0.333333
0.329167
0.354167
0.391667
0.383333
0.312500
0.279167
0.354167
0.387500
0.362500
0.333333
0.329167
0.308333
0.641667
0.395833
1.495833
0.345833
1.375000
0.441667
1.412500
0.350000
1.287500
0.445833
1.254167
0.445833
1.250000
0.479167
1.208333
1.666667
