0.570833
0.570833
0.566667
0.566667
0.562500
0.562500
0.566667
0.566667
0.562500
0.562500
0.570833
0.562500
0.562500
0.570833
0.566667
0.566667
0.566667
0.562500
0.554167
0.566667
0.550000
0.558333
0.570833
0.562500
0.575000
0.562500
0.570833
0.558333
0.562500
0.562500
0.566667
0.575000
0.558333
0.570833
0.562500
0.575000
0.558333
0.570833
0.570833
0.558333
0.570833
0.566667
0.562500
0.575000
0.566667
0.575000
0.570833
0.558333
0.579167
0.570833
0.570833
0.570833
0.570833
0.566667
0.575000
0.562500
0.575000
0.566667
0.562500
0.579167
0.558333
0.570833
0.562500
0.570833
0.675000
0.466667
0.562500
0.558333
0.566667
0.566667
0.554167
0.562500
0.566667
0.558333
0.550000
0.562500
0.554167
0.566667
0.558333
0.562500
0.562500
0.558333
0.575000
0.558333
0.570833
0.562500
0.570833
0.562500
0.566667
0.570833
0.558333
0.566667
0.562500
0.566667
0.566667
0.558333
0.562500
0.566667
0.570833
0.558333
0.550000
0.558333
0.554167
0.554167
0.550000
0.545833
0.541667
0.545833
0.550000
0.545833
0.550000
0.550000
0.558333
0.558333
0.554167
0.558333
0.558333
0.562500
0.562500
0.550000
0.570833
0.550000
0.554167
0.575000
0.570833
0.666667
0.458333
0.558333
0.562500
0.570833
0.562500
0.575000
0.562500
0.562500
0.575000
0.554167
0.575000
0.570833
0.566667
0.566667
0.562500
0.562500
0.562500
0.575000
0.570833
0.570833
0.570833
0.575000
0.566667
0.575000
0.566667
0.575000
0.562500
0.579167
0.566667
0.566667
0.579167
0.566667
0.570833
0.579167
0.566667
0.566667
0.579167
0.570833
0.575000
0.575000
0.575000
0.570833
0.570833
0.579167
0.566667
0.575000
0.566667
0.575000
0.562500
0.575000
0.570833
0.570833
0.575000
0.562500
0.575000
0.570833
0.562500
0.570833
0.566667
0.566667
0.570833
0.566667
0.562500
0.570833
0.566667
0.566667
0.345833
0.787500
0.566667
0.566667
0.570833
0.566667
0.570833
0.566667
0.562500
0.570833
0.566667
0.570833
0.558333
0.575000
0.562500
0.575000
0.566667
0.579167
0.566667
0.575000
0.566667
0.579167
0.566667
0.579167
0.570833
0.575000
0.570833
0.579167
0.575000
0.575000
0.420833
0.729167
0.558333
0.575000
0.575000
0.570833
0.575000
0.570833
0.562500
0.583333
0.562500
0.566667
0.562500
0.566667
0.570833
0.558333
0.570833
0.554167
0.570833
0.554167
0.562500
0.570833
0.554167
0.566667
0.550000
0.570833
0.558333
0.562500
0.566667
0.562500
0.554167
0.566667
0.558333
0.562500
0.570833
0.554167
0.566667
0.566667
0.558333
0.558333
0.562500
0.566667
0.566667
0.558333
0.566667
0.566667
0.562500
0.554167
0.562500
0.562500
0.554167
0.570833
0.550000
0.562500
0.562500
0.562500
0.554167
0.570833
0.558333
0.566667
0.562500
0.558333
0.566667
0.554167
0.566667
0.566667
0.566667
0.562500
0.566667
0.570833
0.554167
0.562500
0.566667
0.195833
0.920833
0.566667
0.566667
0.562500
0.558333
0.570833
0.558333
0.545833
0.562500
0.562500
0.554167
0.566667
0.358333
0.300000
1.000000
0.558333
0.675000
0.450000
0.666667
0.445833
0.562500
0.550000
0.566667
0.562500
0.550000
0.558333
0.562500
0.562500
0.566667
0.558333
0.554167
0.566667
0.554167
0.570833
0.558333
0.566667
0.554167
0.566667
0.550000
0.575000
0.566667
0.554167
0.575000
0.570833
0.570833
0.566667
0.566667
0.554167
0.570833
0.566667
0.570833
0.562500
0.566667
0.575000
0.545833
0.562500
0.562500
0.570833
0.558333
0.570833
0.562500
0.570833
0.558333
0.575000
0.558333
0.570833
0.550000
0.562500
0.575000
0.558333
0.575000
0.558333
0.570833
0.558333
0.566667
0.679167
0.466667
0.575000
0.566667
0.579167
0.575000
0.566667
0.579167
0.566667
0.579167
0.558333
0.579167
0.562500
0.575000
0.558333
0.575000
0.558333
0.575000
0.566667
0.562500
0.570833
0.562500
0.575000
0.566667
0.558333
0.579167
0.570833
0.558333
0.566667
0.575000
0.554167
0.579167
0.554167
0.579167
0.562500
0.545833
0.566667
0.570833
0.562500
0.562500
0.566667
0.554167
0.566667
0.554167
0.570833
0.558333
0.558333
0.566667
0.554167
0.566667
0.554167
0.566667
0.562500
0.554167
0.566667
0.550000
0.570833
0.554167
0.566667
0.562500
0.550000
0.675000
0.445833
0.554167
0.558333
0.545833
0.558333
0.545833
0.558333
0.550000
0.550000
0.558333
0.545833
0.562500
0.545833
0.558333
0.554167
0.554167
0.562500
0.550000
0.554167
0.566667
0.550000
0.562500
0.566667
0.545833
0.566667
0.554167
0.558333
0.566667
0.541667
0.562500
0.554167
0.554167
0.562500
0.550000
0.562500
0.550000
0.554167
0.562500
0.550000
0.554167
0.562500
0.541667
0.562500
0.550000
0.558333
0.558333
0.550000
0.562500
0.550000
0.562500
0.550000
0.562500
0.558333
0.550000
0.566667
0.550000
0.558333
0.562500
0.550000
0.566667
0.550000
0.562500
0.550000
0.566667
0.566667
0.545833
0.566667
0.562500
0.562500
0.558333
0.558333
0.562500
0.554167
0.558333
0.562500
0.550000
0.570833
0.554167
0.566667
0.554167
0.566667
0.566667
0.554167
0.570833
0.566667
0.562500
0.566667
0.541667
0.558333
0.566667
0.545833
0.566667
0.545833
0.566667
0.545833
0.562500
0.558333
0.550000
0.558333
0.554167
0.558333
0.562500
0.545833
0.566667
0.550000
0.554167
0.566667
0.550000
0.562500
0.566667
0.550000
0.566667
0.554167
0.562500
0.562500
0.550000
0.566667
0.550000
0.558333
0.562500
0.550000
0.562500
0.550000
0.558333
0.558333
0.550000
0.675000
0.437500
0.562500
0.562500
0.541667
0.554167
0.662500
0.250000
0.741667
0.554167
0.550000
0.550000
0.545833
0.550000
0.554167
0.545833
0.554167
0.550000
0.554167
0.550000
0.558333
0.550000
0.558333
0.550000
0.554167
0.562500
0.550000
0.558333
0.562500
0.550000
0.562500
0.558333
0.558333
0.570833
0.550000
0.558333
0.570833
0.554167
0.558333
0.570833
0.554167
0.566667
0.562500
0.558333
0.566667
0.550000
0.566667
0.558333
0.558333
0.570833
0.545833
0.666667
0.445833
0.562500
0.545833
0.562500
0.554167
0.554167
0.562500
0.545833
0.554167
0.558333
0.558333
0.554167
0.566667
0.550000
0.562500
0.562500
0.550000
0.566667
0.562500
0.550000
0.562500
0.562500
0.550000
0.562500
0.558333
0.550000
0.562500
0.545833
0.566667
0.550000
0.554167
0.566667
0.545833
0.562500
0.558333
0.554167
0.566667
0.554167
0.566667
0.566667
0.562500
0.562500
0.558333
0.550000
0.558333
0.554167
0.558333
0.558333
0.554167
0.554167
0.562500
0.554167
0.566667
0.554167
0.570833
0.554167
0.579167
0.562500
0.579167
0.566667
0.583333
0.583333
0.583333
0.583333
0.583333
0.587500
0.579167
0.583333
0.575000
0.575000
0.579167
0.579167
0.575000
0.575000
0.579167
0.570833
0.575000
0.570833
0.566667
0.570833
0.566667
0.566667
0.562500
0.570833
0.562500
0.570833
0.558333
0.570833
0.554167
0.566667
0.558333
0.554167
0.570833
0.558333
0.558333
0.558333
0.558333
0.558333
0.558333
0.558333
0.562500
0.554167
0.558333
0.545833
0.566667
0.550000
0.550000
0.550000
0.554167
0.541667
0.550000
0.554167
0.558333
0.558333
0.545833
0.550000
0.554167
0.525000
0.545833
0.550000
0.537500
0.558333
0.545833
0.550000
0.558333
0.545833
0.562500
0.545833
0.562500
0.554167
0.545833
0.558333
0.545833
0.562500
0.554167
0.554167
0.562500
0.545833
0.562500
0.554167
0.558333
0.558333
0.550000
0.562500
0.545833
0.562500
0.550000
0.558333
0.550000
0.554167
0.550000
0.562500
0.545833
0.550000
0.558333
0.562500
0.566667
0.562500
0.562500
0.554167
0.558333
0.554167
0.558333
0.554167
0.554167
0.554167
0.554167
0.550000
0.554167
0.554167
0.550000
0.541667
0.554167
0.554167
0.545833
0.550000
0.562500
0.562500
0.558333
0.562500
0.558333
0.562500
0.562500
0.537500
0.545833
0.545833
0.566667
0.570833
0.562500
0.562500
0.537500
0.541667
0.550000
0.562500
0.562500
0.558333
0.550000
0.558333
0.545833
0.554167
0.537500
0.570833
0.550000
0.570833
0.554167
0.570833
0.558333
0.566667
0.550000
0.570833
0.545833
0.575000
0.550000
0.570833
0.562500
0.566667
0.566667
0.562500
0.566667
0.545833
0.566667
0.554167
0.562500
0.550000
0.554167
0.558333
0.545833
0.562500
0.545833
0.550000
0.554167
0.554167
0.558333
0.545833
0.562500
0.545833
0.558333
0.541667
0.558333
0.550000
0.550000
0.554167
0.545833
0.550000
0.537500
0.558333
0.533333
0.550000
0.541667
0.550000
0.541667
0.550000
0.545833
0.545833
0.554167
0.537500
0.554167
0.537500
0.554167
0.545833
0.550000
0.550000
0.541667
0.545833
0.545833
0.545833
0.541667
0.550000
0.537500
0.554167
0.545833
0.537500
0.550000
0.541667
0.541667
0.550000
0.537500
0.545833
0.541667
0.541667
0.541667
0.533333
0.541667
0.541667
0.533333
0.550000
0.529167
0.545833
0.537500
0.545833
0.541667
0.537500
0.545833
0.537500
0.545833
0.537500
0.550000
0.537500
0.550000
0.541667
0.550000
0.545833
0.550000
0.545833
0.550000
0.545833
0.558333
0.545833
0.554167
0.550000
0.550000
0.558333
0.550000
0.554167
0.550000
0.541667
0.558333
0.545833
0.554167
0.550000
0.558333
0.545833
0.562500
0.545833
0.554167
0.554167
0.554167
0.550000
0.554167
0.545833
0.554167
0.545833
0.550000
0.554167
0.537500
0.554167
0.550000
0.541667
0.550000
0.550000
0.537500
0.550000
0.550000
0.541667
0.554167
0.545833
0.550000
0.541667
0.545833
0.550000
0.545833
0.550000
0.541667
0.550000
0.541667
0.545833
0.529167
0.545833
0.550000
0.545833
0.554167
0.541667
0.550000
0.550000
0.545833
0.541667
0.362500
0.187500
0.550000
0.537500
0.541667
0.545833
0.541667
0.545833
0.537500
0.545833
0.541667
0.537500
0.541667
0.545833
0.537500
0.541667
0.550000
0.537500
0.541667
0.545833
0.504167
0.341667
0.766667
0.537500
0.545833
0.533333
0.541667
0.541667
0.533333
0.545833
0.533333
0.541667
0.537500
0.545833
0.533333
0.545833
0.537500
0.541667
0.537500
0.545833
0.545833
0.537500
0.545833
0.537500
0.545833
0.541667
0.541667
0.541667
0.541667
0.541667
0.541667
0.541667
0.545833
0.537500
0.545833
0.520833
0.558333
0.545833
0.541667
0.537500
0.545833
0.545833
0.541667
0.550000
0.533333
0.541667
0.550000
0.537500
0.550000
0.541667
0.554167
0.541667
0.533333
0.550000
0.537500
0.537500
0.554167
0.554167
0.550000
0.554167
0.550000
0.554167
0.545833
0.550000
0.554167
0.545833
0.554167
0.545833
0.554167
0.554167
0.545833
0.554167
0.550000
0.558333
0.554167
0.554167
0.545833
0.554167
0.554167
0.554167
0.554167
0.545833
0.558333
0.554167
0.545833
0.558333
0.550000
0.554167
0.541667
0.558333
0.554167
0.537500
0.554167
0.550000
0.550000
0.541667
0.550000
0.545833
0.537500
0.550000
0.537500
0.541667
0.537500
0.300000
0.795833
0.541667
0.537500
0.533333
0.529167
0.320833
0.220833
0.537500
0.533333
0.541667
0.291667
0.779167
0.537500
0.545833
0.541667
0.537500
0.545833
0.645833
0.429167
0.537500
