0.525000
0.520833
0.525000
0.525000
0.525000
0.520833
0.520833
0.520833
0.525000
0.520833
0.525000
0.520833
0.525000
0.520833
0.520833
0.525000
0.525000
0.520833
0.525000
0.520833
0.525000
0.520833
0.529167
0.520833
0.525000
0.520833
0.525000
0.520833
0.525000
0.529167
0.525000
0.520833
0.525000
0.520833
0.525000
0.525000
0.525000
0.520833
0.525000
0.520833
0.525000
0.525000
0.525000
0.520833
0.525000
0.520833
0.525000
0.529167
0.525000
0.520833
0.525000
0.520833
0.525000
0.529167
0.525000
0.520833
0.525000
0.520833
0.525000
0.525000
0.529167
0.516667
0.525000
0.520833
0.525000
0.520833
0.525000
0.525000
0.525000
0.525000
0.520833
0.525000
0.525000
0.529167
0.525000
0.520833
0.525000
0.525000
0.525000
0.525000
0.525000
0.520833
0.525000
0.525000
0.525000
0.525000
0.525000
0.525000
0.525000
0.520833
0.525000
0.529167
0.529167
0.520833
0.525000
0.520833
0.525000
0.525000
0.529167
0.525000
0.529167
0.520833
0.525000
0.529167
0.529167
0.525000
0.525000
0.525000
0.529167
0.520833
0.525000
0.525000
0.529167
0.525000
0.525000
0.525000
0.525000
0.529167
0.525000
0.520833
0.525000
0.525000
0.525000
0.529167
0.529167
0.525000
0.525000
0.520833
0.529167
0.525000
0.529167
0.525000
0.525000
0.525000
0.525000
0.529167
0.529167
0.525000
0.525000
0.525000
0.525000
0.525000
0.520833
0.529167
0.525000
0.525000
0.520833
0.525000
0.525000
0.525000
0.525000
0.525000
0.520833
0.525000
0.525000
0.525000
0.525000
0.525000
0.520833
0.525000
0.520833
0.529167
0.525000
0.525000
0.525000
0.520833
0.529167
0.529167
0.525000
0.525000
0.525000
0.520833
0.525000
0.529167
0.525000
0.520833
0.525000
0.520833
0.525000
0.529167
0.525000
0.520833
0.525000
0.520833
0.525000
0.529167
0.525000
0.520833
0.525000
0.520833
0.525000
0.529167
0.525000
0.525000
0.525000
0.520833
0.525000
0.525000
0.525000
0.520833
0.525000
0.520833
0.525000
0.529167
0.525000
0.520833
0.525000
0.520833
0.525000
0.529167
0.525000
0.525000
0.525000
0.520833
0.525000
0.529167
0.529167
0.520833
0.525000
0.525000
0.525000
0.525000
0.525000
0.525000
0.525000
0.520833
0.529167
0.529167
0.525000
0.525000
0.529167
0.520833
0.529167
0.529167
0.525000
0.525000
0.525000
0.525000
0.525000
0.529167
0.525000
0.525000
0.529167
0.520833
0.529167
0.525000
0.529167
0.525000
0.525000
0.520833
0.529167
0.525000
0.529167
0.525000
0.333333
0.391667
0.395833
0.445833
0.516667
0.587500
0.587500
0.516667
0.529167
0.533333
0.525000
0.533333
0.525000
0.529167
0.520833
0.533333
0.525000
0.525000
0.525000
0.529167
0.525000
0.529167
0.525000
0.529167
0.529167
0.525000
0.525000
0.529167
0.525000
0.529167
0.525000
0.529167
0.525000
0.525000
0.529167
0.529167
0.529167
0.529167
0.525000
0.525000
0.529167
0.525000
0.529167
0.529167
0.525000
0.525000
0.525000
0.529167
0.529167
0.525000
0.529167
0.525000
0.525000
0.529167
0.529167
0.529167
0.525000
0.525000
0.525000
0.529167
0.529167
0.529167
0.520833
0.529167
0.520833
0.529167
0.529167
0.529167
0.525000
0.525000
0.525000
0.525000
0.525000
0.529167
0.525000
0.529167
0.520833
0.529167
0.520833
0.533333
0.525000
0.525000
0.525000
0.525000
0.525000
0.529167
0.525000
0.529167
0.525000
0.525000
0.525000
0.525000
0.529167
0.525000
0.525000
0.525000
0.525000
0.525000
0.529167
0.529167
0.520833
0.525000
0.525000
0.525000
0.529167
0.525000
0.525000
0.525000
0.525000
0.529167
0.529167
0.525000
0.529167
0.525000
0.525000
0.525000
0.533333
0.525000
0.525000
0.529167
0.520833
0.529167
0.525000
0.525000
0.529167
0.525000
0.525000
0.529167
0.525000
0.529167
0.525000
0.529167
0.520833
0.529167
0.525000
0.525000
0.525000
0.525000
0.525000
0.525000
0.525000
0.533333
0.520833
0.529167
0.525000
0.525000
0.525000
0.533333
0.525000
0.525000
0.525000
0.525000
0.525000
0.529167
0.525000
0.525000
0.525000
0.525000
0.525000
0.520833
0.529167
0.525000
0.525000
0.525000
0.520833
0.529167
0.525000
0.525000
0.525000
0.520833
0.525000
0.525000
0.529167
0.525000
0.520833
0.525000
0.520833
0.529167
0.529167
0.525000
0.525000
0.520833
0.525000
0.525000
0.529167
0.525000
0.525000
0.525000
0.520833
0.525000
0.529167
0.525000
0.525000
0.525000
0.525000
0.525000
0.525000
0.525000
0.520833
0.525000
0.525000
0.525000
0.525000
0.525000
0.520833
0.520833
0.529167
0.525000
0.520833
0.525000
0.525000
0.520833
0.529167
0.525000
0.525000
0.525000
0.520833
0.525000
0.529167
0.525000
0.520833
0.525000
0.520833
0.525000
0.529167
0.525000
0.525000
0.525000
0.520833
0.525000
0.520833
0.525000
0.525000
0.525000
0.520833
0.525000
0.525000
0.525000
0.525000
0.525000
0.520833
0.525000
0.520833
0.525000
0.529167
0.525000
0.520833
0.525000
0.525000
0.525000
0.529167
0.520833
0.520833
0.525000
0.520833
0.529167
0.525000
0.525000
0.520833
0.525000
0.520833
0.525000
0.525000
0.525000
0.520833
0.525000
0.520833
0.525000
0.529167
0.525000
0.520833
0.525000
0.520833
0.525000
0.525000
0.525000
0.525000
0.525000
0.404167
0.650000
0.525000
0.525000
0.520833
0.520833
0.525000
0.529167
0.525000
0.525000
0.520833
0.520833
0.525000
0.525000
0.525000
0.525000
0.520833
0.525000
0.525000
0.520833
0.516667
0.525000
0.520833
0.520833
0.525000
0.520833
0.525000
0.525000
0.520833
0.520833
0.525000
0.520833
0.520833
0.516667
0.525000
0.516667
0.520833
0.512500
0.525000
0.520833
0.520833
0.512500
0.525000
0.520833
0.520833
0.520833
0.520833
0.525000
0.520833
0.520833
0.516667
0.520833
0.520833
0.516667
0.516667
0.520833
0.520833
0.520833
0.520833
0.516667
0.525000
0.516667
0.520833
0.520833
0.525000
0.516667
0.520833
0.520833
0.516667
0.520833
0.520833
0.516667
0.516667
0.520833
0.520833
0.516667
0.520833
0.516667
0.520833
0.520833
0.516667
0.516667
0.520833
0.520833
0.520833
0.516667
0.520833
0.520833
0.520833
0.520833
0.516667
0.520833
0.516667
0.525000
0.520833
0.520833
0.520833
0.520833
0.516667
0.525000
0.520833
0.516667
0.520833
0.525000
0.520833
0.516667
0.520833
0.520833
0.516667
0.525000
0.520833
0.516667
0.520833
0.520833
0.520833
0.516667
0.520833
0.516667
0.520833
0.516667
0.520833
0.512500
0.516667
0.520833
0.516667
0.516667
0.333333
0.700000
0.516667
0.516667
0.516667
0.662500
0.370833
0.520833
0.516667
0.516667
0.516667
0.595833
0.433333
0.520833
0.516667
0.516667
0.512500
0.516667
0.512500
0.516667
0.516667
0.516667
0.512500
0.670833
0.358333
0.516667
0.516667
0.512500
0.512500
0.512500
0.516667
0.516667
0.516667
0.512500
0.512500
0.629167
0.395833
0.520833
0.516667
0.512500
0.512500
0.679167
0.350000
0.516667
0.516667
0.512500
0.512500
0.516667
0.516667
0.516667
0.516667
0.512500
0.391667
0.641667
0.520833
0.516667
0.516667
0.512500
0.529167
0.500000
0.516667
0.516667
0.516667
0.512500
0.370833
0.279167
0.629167
0.420833
0.145833
0.729167
0.512500
0.508333
0.512500
0.512500
0.512500
0.512500
0.512500
0.516667
0.516667
0.516667
0.512500
0.516667
0.520833
0.512500
0.512500
0.516667
0.512500
0.512500
0.512500
0.512500
0.516667
0.508333
0.516667
0.512500
0.512500
0.516667
0.512500
0.512500
0.512500
0.512500
0.512500
0.516667
0.512500
0.512500
0.516667
0.508333
0.516667
0.512500
0.512500
0.512500
0.512500
0.516667
0.512500
0.512500
0.516667
0.512500
0.516667
0.512500
0.516667
0.516667
0.512500
0.516667
0.512500
0.512500
0.516667
0.516667
0.516667
0.512500
0.516667
0.508333
0.516667
0.512500
0.516667
0.512500
0.512500
0.516667
0.516667
0.512500
0.512500
0.512500
0.512500
0.516667
0.512500
0.512500
0.508333
0.516667
0.512500
0.516667
0.512500
0.512500
0.516667
0.512500
0.512500
0.512500
0.516667
0.516667
0.512500
0.512500
0.516667
0.512500
0.512500
0.516667
0.512500
0.512500
0.512500
0.512500
0.512500
0.516667
0.508333
0.516667
0.516667
0.516667
0.512500
0.516667
0.508333
0.516667
0.516667
0.516667
0.516667
0.516667
0.512500
0.512500
0.520833
0.516667
0.512500
0.516667
0.508333
0.516667
0.516667
0.520833
0.516667
0.512500
0.512500
0.516667
0.512500
0.520833
0.512500
0.516667
0.512500
0.516667
0.508333
0.512500
0.508333
0.512500
0.512500
0.516667
0.512500
0.516667
0.512500
0.512500
0.508333
0.516667
0.516667
0.516667
0.512500
0.512500
0.512500
0.516667
0.516667
0.516667
0.516667
0.512500
0.516667
0.516667
0.516667
0.516667
0.512500
0.512500
0.516667
0.520833
0.512500
0.516667
0.512500
0.520833
0.512500
0.516667
0.516667
0.516667
0.512500
0.520833
0.516667
0.516667
0.516667
0.512500
0.512500
0.516667
0.516667
0.516667
0.516667
0.516667
0.512500
0.516667
0.512500
0.516667
0.516667
0.512500
0.512500
0.516667
0.520833
0.516667
0.516667
0.512500
0.512500
0.516667
0.520833
0.516667
0.516667
0.516667
0.512500
0.516667
0.520833
0.516667
0.516667
0.516667
0.512500
0.516667
0.520833
0.516667
0.516667
0.516667
0.516667
0.516667
0.520833
0.516667
0.516667
0.516667
0.516667
0.516667
0.520833
0.516667
0.516667
0.516667
0.516667
0.516667
0.516667
0.520833
0.512500
0.520833
0.516667
0.520833
0.516667
0.520833
0.512500
0.516667
0.516667
0.516667
0.520833
0.516667
0.516667
0.516667
0.516667
0.516667
0.520833
0.516667
0.512500
0.520833
0.520833
0.520833
0.516667
0.516667
0.516667
0.516667
0.520833
0.520833
0.520833
0.516667
0.516667
0.516667
0.512500
0.525000
0.512500
0.516667
0.520833
0.516667
0.520833
0.520833
0.512500
0.520833
0.516667
0.516667
0.516667
0.520833
0.516667
0.516667
0.516667
0.516667
0.520833
0.520833
0.516667
0.516667
0.516667
0.516667
0.520833
0.520833
0.516667
0.516667
0.516667
0.516667
0.525000
0.516667
0.520833
0.516667
0.516667
0.520833
0.516667
0.525000
0.512500
0.520833
0.516667
0.520833
0.520833
0.516667
0.516667
0.520833
0.516667
0.520833
0.520833
0.516667
0.516667
0.520833
0.516667
0.520833
0.520833
0.516667
0.516667
0.516667
0.516667
0.525000
0.516667
0.520833
0.512500
0.520833
0.520833
0.520833
0.516667
0.520833
0.516667
0.516667
0.520833
0.516667
0.516667
0.516667
0.516667
0.516667
0.520833
0.516667
0.516667
0.516667
0.516667
0.520833
0.516667
0.520833
0.516667
0.516667
0.516667
0.520833
0.516667
0.520833
0.516667
0.520833
0.520833
0.516667
0.512500
0.520833
0.516667
0.520833
0.516667
0.516667
0.516667
0.520833
0.516667
0.516667
0.516667
0.516667
0.516667
0.520833
0.516667
0.516667
0.516667
0.520833
0.512500
0.516667
0.516667
0.520833
0.512500
0.516667
0.516667
0.520833
0.520833
0.516667
0.516667
0.520833
0.516667
0.520833
0.516667
0.520833
0.516667
0.520833
0.520833
0.516667
0.516667
0.520833
0.512500
0.520833
0.516667
0.516667
0.516667
0.520833
0.516667
0.520833
0.512500
0.516667
0.516667
0.516667
0.520833
0.520833
0.516667
0.516667
0.512500
0.520833
0.520833
0.516667
0.520833
0.516667
0.516667
0.516667
0.520833
0.520833
0.516667
0.516667
0.516667
0.520833
0.516667
0.520833
0.512500
0.516667
0.516667
0.520833
0.516667
0.516667
0.516667
0.516667
0.516667
0.520833
0.516667
0.520833
0.512500
0.520833
0.520833
0.520833
0.516667
0.520833
0.512500
0.520833
0.516667
0.525000
0.516667
0.516667
0.516667
0.520833
0.520833
0.520833
0.516667
0.520833
0.516667
0.520833
0.520833
0.516667
0.516667
0.516667
0.520833
0.520833
0.520833
0.520833
0.512500
0.520833
0.520833
0.520833
0.520833
0.520833
0.516667
0.520833
