0.512500
0.541667
0.508333
0.541667
0.508333
0.520833
0.545833
0.508333
0.550000
0.508333
0.541667
0.508333
0.545833
0.508333
0.545833
0.508333
0.516667
0.545833
0.512500
0.541667
0.512500
0.516667
0.550000
0.508333
0.545833
0.508333
0.516667
0.525000
0.545833
0.508333
0.541667
0.508333
0.545833
0.508333
0.541667
0.508333
0.520833
0.545833
0.508333
0.545833
0.508333
0.516667
0.525000
0.545833
0.512500
0.545833
0.504167
0.516667
0.545833
0.508333
0.545833
0.508333
0.537500
0.504167
0.545833
0.504167
0.541667
0.508333
0.537500
0.504167
0.545833
0.508333
0.541667
0.504167
0.516667
0.520833
0.550000
0.504167
0.545833
0.529167
0.508333
0.541667
0.508333
0.550000
0.508333
0.516667
0.525000
0.545833
0.508333
0.545833
0.504167
0.525000
0.550000
0.504167
0.545833
0.508333
0.550000
0.504167
0.550000
0.504167
0.545833
0.504167
0.545833
0.508333
0.545833
0.508333
0.520833
0.545833
0.508333
0.550000
0.508333
0.545833
0.504167
0.545833
0.508333
0.545833
0.508333
0.520833
0.525000
0.525000
0.550000
0.504167
0.545833
0.508333
0.520833
0.550000
0.504167
0.550000
0.508333
0.516667
0.525000
0.550000
0.508333
0.541667
0.512500
0.525000
0.520833
0.545833
0.508333
0.525000
0.550000
0.516667
0.545833
0.508333
0.520833
0.529167
0.545833
0.508333
0.545833
0.504167
0.520833
0.520833
0.550000
0.504167
0.541667
0.508333
0.525000
0.545833
0.508333
0.545833
0.504167
0.520833
0.550000
0.504167
0.545833
0.508333
0.516667
0.550000
0.504167
0.550000
0.508333
0.520833
0.525000
0.545833
0.508333
0.545833
0.508333
0.516667
0.554167
0.508333
0.545833
0.504167
0.520833
0.550000
0.504167
0.545833
0.504167
0.545833
0.508333
0.541667
0.508333
0.545833
0.508333
0.545833
0.508333
0.545833
0.508333
0.545833
0.508333
0.545833
0.508333
0.520833
0.550000
0.508333
0.550000
0.508333
0.516667
0.525000
0.550000
0.508333
0.545833
0.504167
0.545833
0.508333
0.545833
0.508333
0.516667
0.550000
0.508333
0.550000
0.504167
0.520833
0.550000
0.508333
0.550000
0.504167
0.545833
0.508333
0.545833
0.508333
0.545833
0.508333
0.520833
0.520833
0.550000
0.508333
0.541667
0.508333
0.516667
0.525000
0.545833
0.508333
0.541667
0.504167
0.545833
0.508333
0.541667
0.508333
0.541667
0.504167
0.545833
0.508333
0.541667
0.508333
0.541667
0.504167
0.520833
0.545833
0.508333
0.545833
0.529167
0.508333
0.550000
0.504167
0.545833
0.508333
0.516667
0.525000
0.520833
0.550000
0.504167
0.545833
0.508333
0.520833
0.550000
0.504167
0.545833
0.508333
0.520833
0.550000
0.504167
0.545833
0.504167
0.541667
0.508333
0.520833
0.520833
0.520833
0.550000
0.504167
0.545833
0.504167
0.520833
0.550000
0.504167
0.545833
0.504167
0.520833
0.550000
0.508333
0.541667
0.508333
0.520833
0.550000
0.504167
0.550000
0.504167
0.520833
0.550000
0.508333
0.545833
0.508333
0.520833
0.525000
0.525000
0.550000
0.504167
0.545833
0.508333
0.520833
0.550000
0.504167
0.550000
0.533333
0.508333
0.520833
0.525000
0.520833
0.550000
0.504167
0.520833
0.554167
0.504167
0.550000
0.504167
0.529167
0.520833
0.520833
0.550000
0.508333
0.550000
0.508333
0.550000
0.508333
0.520833
0.520833
0.554167
0.508333
0.545833
0.504167
0.520833
0.554167
0.504167
0.550000
0.508333
0.520833
0.554167
0.504167
0.550000
0.504167
0.520833
0.554167
0.504167
0.545833
0.508333
0.516667
0.554167
0.504167
0.550000
0.504167
0.520833
0.550000
0.508333
0.550000
0.504167
0.550000
0.508333
0.545833
0.508333
0.520833
0.550000
0.508333
0.545833
0.508333
0.525000
0.545833
0.508333
0.550000
0.508333
0.520833
0.550000
0.508333
0.550000
0.508333
0.545833
0.508333
0.545833
0.508333
0.545833
0.508333
0.520833
0.550000
0.504167
0.550000
0.508333
0.516667
0.550000
0.508333
0.550000
0.504167
0.545833
0.504167
0.545833
0.508333
0.545833
0.508333
0.516667
0.525000
0.545833
0.508333
0.545833
0.504167
0.525000
0.545833
0.508333
0.550000
0.508333
0.520833
0.550000
0.504167
0.545833
0.508333
0.520833
0.525000
0.525000
0.545833
0.508333
0.525000
0.525000
0.520833
0.550000
0.508333
0.545833
0.504167
0.550000
0.508333
0.520833
0.545833
0.508333
0.533333
0.520833
0.545833
0.512500
0.520833
0.520833
0.550000
0.508333
0.550000
0.504167
0.516667
0.554167
0.508333
0.525000
0.525000
0.554167
0.508333
0.550000
0.508333
0.554167
0.512500
0.550000
0.508333
0.520833
0.529167
0.525000
0.529167
0.550000
0.504167
0.525000
0.554167
0.508333
0.545833
0.508333
0.554167
0.504167
0.550000
0.504167
0.550000
0.504167
0.520833
0.554167
0.504167
0.545833
0.512500
0.525000
0.520833
0.550000
0.504167
0.545833
0.508333
0.525000
0.520833
0.550000
0.508333
0.516667
0.520833
0.520833
0.525000
0.545833
0.504167
0.520833
0.550000
0.504167
0.545833
0.504167
0.516667
0.520833
0.525000
0.545833
0.504167
0.520833
0.520833
0.550000
0.504167
0.545833
0.504167
0.516667
0.520833
0.550000
0.508333
0.541667
0.508333
0.520833
0.550000
0.504167
0.545833
0.504167
0.520833
0.525000
0.516667
0.550000
0.504167
0.516667
0.550000
0.504167
0.545833
0.508333
0.516667
0.550000
0.508333
0.541667
0.508333
0.541667
0.508333
0.545833
0.504167
0.545833
0.508333
0.520833
0.550000
0.504167
0.545833
0.508333
0.541667
0.508333
0.541667
0.508333
0.520833
0.550000
0.504167
0.545833
0.504167
0.525000
0.520833
0.520833
0.545833
0.533333
0.504167
0.520833
0.550000
0.504167
0.541667
0.508333
0.545833
0.508333
0.545833
0.504167
0.520833
0.525000
0.545833
0.508333
0.541667
0.508333
0.516667
0.520833
0.525000
0.525000
0.541667
0.504167
0.525000
0.545833
0.508333
0.545833
0.512500
0.516667
0.520833
0.550000
0.504167
0.541667
0.508333
0.520833
0.525000
0.520833
0.550000
0.504167
0.545833
0.508333
0.541667
0.508333
0.541667
0.508333
0.520833
0.525000
0.516667
0.545833
0.508333
0.520833
0.525000
0.525000
0.541667
0.504167
0.525000
0.545833
0.508333
0.545833
0.504167
0.520833
0.520833
0.550000
0.504167
0.545833
0.508333
0.520833
0.520833
0.550000
0.504167
0.545833
0.504167
0.525000
0.550000
0.504167
0.550000
0.504167
0.520833
0.550000
0.508333
0.545833
0.504167
0.520833
0.520833
0.545833
0.508333
0.541667
0.504167
0.520833
0.545833
0.508333
0.541667
0.508333
0.516667
0.550000
0.508333
0.550000
0.504167
0.520833
0.520833
0.525000
0.520833
0.550000
0.508333
0.516667
0.520833
0.525000
0.520833
0.545833
0.508333
0.520833
0.550000
0.504167
0.429167
0.629167
0.529167
0.520833
0.520833
0.545833
0.504167
0.520833
0.520833
0.554167
0.504167
0.550000
0.504167
0.520833
0.520833
0.520833
0.550000
0.508333
0.520833
0.520833
0.525000
0.525000
0.550000
0.504167
0.520833
0.525000
0.520833
0.525000
0.550000
0.504167
0.516667
0.520833
0.550000
0.504167
0.550000
0.504167
0.525000
0.550000
0.504167
0.550000
0.504167
0.516667
0.525000
0.550000
0.504167
0.550000
0.504167
0.516667
0.520833
0.554167
0.504167
0.550000
0.508333
0.520833
0.525000
0.516667
0.550000
0.508333
0.520833
0.520833
0.520833
0.525000
0.550000
0.504167
0.520833
0.525000
0.520833
0.520833
0.554167
0.504167
0.525000
0.525000
0.520833
0.520833
0.550000
0.537500
0.504167
0.520833
0.554167
0.504167
0.550000
0.504167
0.525000
0.525000
0.516667
0.554167
0.504167
1.050000
0.558333
0.504167
0.550000
0.500000
0.520833
0.554167
0.508333
0.545833
0.508333
0.520833
0.525000
0.520833
0.550000
0.508333
0.520833
0.554167
0.504167
0.550000
0.508333
0.520833
0.520833
0.525000
0.554167
0.504167
0.520833
0.525000
0.525000
0.554167
0.504167
0.554167
0.504167
0.516667
0.558333
0.504167
0.554167
0.504167
0.525000
0.554167
0.508333
0.550000
0.504167
0.525000
0.525000
0.525000
0.550000
0.508333
0.550000
0.504167
0.525000
0.529167
0.516667
0.550000
0.508333
0.520833
0.525000
0.554167
0.508333
0.545833
0.508333
0.516667
0.525000
0.520833
0.554167
0.504167
0.520833
0.525000
0.525000
0.554167
0.504167
0.554167
0.504167
0.520833
0.554167
0.504167
0.554167
0.508333
0.516667
0.520833
0.525000
0.525000
0.554167
0.504167
0.520833
0.529167
0.520833
0.554167
0.508333
0.520833
0.525000
0.525000
0.554167
0.504167
0.525000
0.520833
0.529167
0.520833
0.558333
0.508333
0.520833
0.525000
0.525000
0.554167
0.508333
0.525000
0.525000
0.520833
0.525000
0.554167
0.512500
0.520833
0.516667
0.558333
0.508333
0.520833
0.520833
0.525000
0.520833
0.525000
0.516667
0.554167
0.508333
0.520833
0.512500
0.558333
0.504167
0.520833
0.512500
0.558333
0.504167
0.525000
0.516667
0.558333
0.504167
0.520833
0.516667
0.558333
0.504167
0.520833
0.520833
0.516667
0.554167
0.504167
0.520833
0.516667
0.545833
0.529167
0.525000
0.533333
0.529167
0.529167
0.533333
0.529167
0.533333
0.533333
0.533333
0.529167
0.529167
0.537500
0.529167
0.533333
0.529167
0.533333
0.537500
0.512500
0.550000
0.533333
0.533333
0.516667
0.525000
0.525000
0.545833
0.508333
0.550000
0.537500
0.516667
0.545833
0.512500
0.554167
0.537500
0.541667
0.537500
0.512500
0.550000
0.508333
0.550000
0.537500
0.400000
0.629167
0.508333
0.525000
0.520833
0.520833
0.554167
0.504167
0.554167
0.504167
0.520833
0.512500
0.554167
0.508333
0.541667
0.508333
0.550000
0.533333
0.508333
0.525000
0.541667
0.508333
0.545833
0.433333
0.583333
0.500000
0.516667
0.462500
0.600000
0.504167
0.545833
0.504167
0.550000
0.508333
0.554167
0.504167
0.541667
0.533333
0.529167
0.533333
0.533333
0.512500
0.541667
0.508333
0.545833
0.533333
0.529167
0.533333
0.533333
0.504167
0.550000
0.504167
0.541667
0.512500
0.516667
0.550000
0.504167
0.550000
0.508333
0.550000
0.500000
0.550000
0.504167
0.545833
0.508333
0.550000
0.508333
0.525000
0.541667
0.504167
0.545833
0.500000
0.550000
0.504167
0.525000
0.508333
0.554167
0.500000
0.545833
0.504167
0.541667
0.508333
0.541667
0.504167
0.541667
0.504167
0.516667
0.512500
0.550000
0.500000
0.508333
0.545833
0.500000
0.537500
0.529167
0.520833
0.508333
0.537500
0.504167
0.512500
0.541667
0.504167
0.504167
0.541667
0.500000
0.537500
0.500000
0.537500
0.495833
0.512500
0.512500
0.516667
0.537500
0.491667
0.541667
0.500000
0.533333
0.500000
0.537500
0.500000
0.533333
0.504167
0.529167
0.504167
0.529167
0.504167
0.537500
0.495833
0.537500
0.500000
0.283333
0.025000
0.716667
0.533333
0.500000
0.516667
0.537500
0.495833
0.537500
0.504167
0.504167
0.537500
0.504167
0.512500
0.512500
0.512500
0.516667
0.537500
0.495833
0.533333
0.500000
0.512500
0.533333
0.500000
0.537500
0.504167
0.525000
0.508333
0.533333
0.500000
0.508333
0.537500
0.504167
0.537500
0.500000
0.537500
0.504167
0.512500
0.520833
0.508333
0.537500
0.504167
0.537500
0.500000
0.533333
0.504167
0.512500
0.512500
0.537500
0.500000
0.516667
0.533333
0.500000
0.533333
0.516667
0.525000
0.516667
0.525000
0.520833
0.525000
0.495833
0.533333
0.508333
0.512500
0.516667
0.508333
0.541667
0.500000
0.516667
0.504167
0.541667
0.500000
0.508333
0.537500
0.504167
0.512500
0.520833
0.512500
0.516667
0.537500
0.495833
0.537500
0.500000
0.533333
0.520833
0.520833
0.504167
0.533333
0.495833
0.516667
0.516667
0.512500
0.512500
0.508333
0.541667
0.500000
0.537500
0.500000
0.512500
0.512500
0.516667
0.516667
0.516667
0.512500
0.508333
0.545833
