0.575000
0.587500
0.600000
0.591667
0.583333
0.587500
0.591667
0.612500
0.604167
0.587500
0.583333
0.587500
0.591667
0.583333
0.587500
0.575000
0.579167
0.408333
0.779167
0.658333
0.620833
0.620833
0.612500
0.600000
0.579167
0.583333
0.579167
0.575000
0.566667
0.558333
0.570833
0.570833
0.566667
0.562500
0.562500
0.570833
0.579167
0.575000
0.566667
0.570833
0.570833
0.575000
0.575000
0.562500
0.558333
0.558333
0.554167
0.575000
0.570833
0.562500
0.558333
0.566667
0.566667
0.566667
0.554167
0.566667
0.570833
0.566667
0.566667
0.562500
0.570833
0.566667
0.562500
0.558333
0.558333
0.562500
0.562500
0.562500
0.570833
0.562500
0.550000
0.554167
0.558333
0.558333
0.554167
0.550000
0.550000
0.554167
0.550000
0.541667
0.554167
0.545833
0.545833
0.541667
0.541667
0.550000
0.545833
0.554167
0.554167
0.554167
0.558333
0.562500
0.566667
0.570833
0.558333
0.554167
0.554167
0.554167
0.404167
0.691667
0.545833
0.541667
0.545833
0.545833
0.533333
0.541667
0.537500
0.541667
0.537500
0.529167
0.537500
0.533333
0.537500
0.537500
0.533333
0.533333
0.537500
0.537500
0.545833
0.541667
0.533333
0.537500
0.537500
0.541667
0.541667
0.533333
0.537500
0.537500
0.541667
0.541667
0.533333
0.529167
0.533333
0.533333
0.537500
0.541667
0.529167
0.537500
0.537500
0.537500
0.541667
0.533333
0.537500
0.545833
0.533333
0.541667
0.545833
0.537500
0.541667
0.541667
0.550000
0.550000
0.545833
0.554167
0.554167
0.558333
0.558333
0.550000
0.545833
0.545833
0.537500
0.545833
0.545833
0.537500
0.541667
0.541667
0.537500
0.537500
0.629167
0.437500
0.204167
0.320833
0.525000
0.537500
0.525000
0.529167
0.533333
0.533333
0.537500
0.529167
0.537500
0.529167
0.541667
0.537500
0.533333
0.537500
0.533333
0.537500
0.533333
0.529167
0.525000
0.529167
0.529167
0.533333
0.529167
0.525000
0.529167
0.533333
0.537500
0.537500
0.529167
0.525000
0.533333
0.537500
0.533333
0.537500
0.529167
0.533333
0.537500
0.554167
0.566667
0.554167
0.545833
0.541667
0.537500
0.533333
0.533333
0.537500
0.545833
0.541667
0.537500
0.533333
0.291667
0.241667
0.012500
0.520833
0.541667
0.529167
0.533333
0.529167
0.529167
0.525000
0.520833
0.520833
0.525000
0.525000
0.520833
0.516667
0.516667
0.516667
0.520833
0.516667
0.516667
0.520833
0.520833
0.525000
0.520833
0.516667
0.516667
0.520833
0.520833
0.516667
0.516667
0.525000
0.525000
0.516667
0.516667
0.520833
0.525000
0.529167
0.520833
0.516667
0.525000
0.525000
0.529167
0.529167
0.525000
0.520833
0.520833
0.529167
0.520833
0.525000
0.520833
0.525000
0.520833
0.525000
0.525000
0.520833
0.516667
0.512500
0.516667
0.520833
0.516667
0.520833
0.512500
0.520833
0.520833
0.520833
0.520833
0.520833
0.512500
0.520833
0.520833
0.520833
0.525000
0.516667
0.525000
0.529167
0.529167
0.529167
0.533333
0.529167
0.533333
0.529167
0.533333
0.529167
0.529167
0.525000
0.529167
0.533333
0.529167
0.533333
0.525000
0.525000
0.537500
0.537500
0.537500
0.533333
0.537500
0.525000
0.525000
0.533333
0.525000
0.529167
0.533333
0.529167
0.525000
0.533333
0.537500
0.537500
0.533333
0.529167
0.525000
0.533333
0.537500
0.533333
0.529167
0.529167
0.533333
0.541667
0.550000
0.541667
0.541667
0.541667
0.550000
0.550000
0.545833
0.533333
0.537500
0.537500
0.545833
0.541667
0.541667
0.537500
0.545833
0.537500
0.537500
0.533333
0.533333
0.533333
0.541667
0.541667
0.537500
0.537500
0.550000
0.558333
0.545833
0.545833
0.283333
0.254167
0.529167
0.525000
0.537500
0.537500
0.533333
0.533333
0.537500
0.533333
0.533333
0.529167
0.529167
0.533333
0.533333
0.533333
0.529167
0.533333
0.516667
0.525000
0.525000
0.525000
0.520833
0.520833
0.525000
0.525000
0.516667
0.520833
0.525000
0.520833
0.520833
0.525000
0.516667
0.520833
0.387500
0.650000
0.529167
0.525000
0.520833
0.525000
0.533333
0.533333
0.529167
0.529167
0.520833
0.525000
0.533333
0.525000
0.529167
0.525000
0.529167
0.520833
0.525000
0.537500
0.529167
0.525000
0.529167
0.533333
0.537500
0.529167
0.533333
0.533333
0.537500
0.541667
0.545833
0.537500
0.533333
0.550000
0.541667
0.554167
0.554167
0.545833
0.545833
0.558333
0.550000
0.554167
0.545833
0.541667
0.541667
0.545833
0.541667
0.545833
0.545833
0.541667
0.541667
0.550000
0.550000
0.554167
0.541667
0.541667
0.541667
0.554167
0.558333
0.575000
0.579167
0.562500
0.562500
0.566667
0.554167
0.545833
0.550000
0.545833
0.550000
0.545833
0.545833
0.545833
0.537500
0.541667
0.529167
0.533333
0.541667
0.533333
0.537500
0.529167
0.533333
0.541667
0.533333
0.537500
0.541667
0.533333
0.533333
0.545833
0.545833
0.545833
0.545833
0.533333
0.537500
0.541667
0.537500
0.537500
0.541667
0.541667
0.533333
0.537500
0.550000
0.545833
0.550000
0.537500
0.550000
0.554167
0.554167
0.554167
0.558333
0.554167
0.554167
0.550000
0.558333
0.550000
0.541667
0.545833
0.550000
0.554167
0.554167
0.545833
0.541667
0.545833
0.554167
0.545833
0.541667
0.541667
0.541667
0.541667
0.554167
0.550000
0.558333
0.541667
0.550000
0.558333
0.554167
0.554167
0.550000
0.541667
0.550000
0.554167
0.550000
0.554167
0.550000
0.541667
0.545833
0.554167
0.558333
0.550000
0.541667
0.554167
0.550000
0.562500
0.566667
0.566667
0.550000
0.550000
0.558333
0.562500
0.554167
0.550000
0.550000
0.558333
0.554167
0.554167
0.558333
0.550000
0.554167
0.550000
0.558333
0.558333
0.558333
0.550000
0.550000
0.554167
0.562500
0.554167
0.558333
0.550000
0.558333
0.554167
0.570833
0.575000
0.570833
0.570833
0.562500
0.558333
0.562500
0.558333
0.554167
0.545833
0.550000
0.554167
0.550000
0.550000
0.545833
0.554167
0.550000
0.550000
0.550000
0.550000
0.550000
0.545833
0.550000
0.554167
0.558333
0.550000
0.550000
0.558333
0.554167
0.550000
0.550000
0.541667
0.550000
0.550000
0.545833
0.545833
0.554167
0.550000
0.554167
0.545833
0.541667
0.558333
0.562500
0.562500
0.554167
0.550000
0.558333
0.566667
0.554167
0.558333
0.566667
0.554167
0.550000
0.554167
0.550000
0.562500
0.562500
0.558333
0.554167
0.562500
0.570833
0.562500
0.558333
0.550000
0.554167
0.554167
0.550000
0.550000
0.541667
0.550000
0.550000
0.554167
0.550000
0.545833
0.545833
0.558333
0.550000
0.554167
0.541667
0.541667
0.550000
0.550000
0.554167
0.537500
0.541667
0.541667
0.550000
0.541667
0.541667
0.545833
0.550000
0.550000
0.554167
0.545833
0.550000
0.550000
0.554167
0.554167
0.545833
0.550000
0.550000
0.545833
0.545833
0.537500
0.537500
0.537500
0.541667
0.537500
0.541667
0.537500
0.541667
0.537500
0.550000
0.545833
0.545833
0.541667
0.541667
0.545833
0.545833
0.545833
0.541667
0.533333
0.533333
0.541667
0.537500
0.541667
0.537500
0.533333
0.537500
0.541667
0.675000
0.070833
0.341667
0.554167
0.545833
0.550000
0.545833
0.550000
0.591667
0.491667
0.533333
0.529167
0.537500
0.533333
0.533333
0.529167
0.541667
0.533333
0.537500
0.537500
0.545833
0.533333
0.529167
0.533333
0.541667
0.533333
0.533333
0.529167
0.529167
0.533333
0.537500
0.533333
0.533333
0.525000
0.529167
0.537500
0.537500
0.537500
0.529167
0.554167
0.550000
0.545833
0.545833
0.545833
0.541667
0.545833
0.558333
0.554167
0.554167
0.545833
0.545833
0.550000
0.545833
0.550000
0.550000
0.537500
0.545833
0.545833
0.545833
0.545833
0.550000
0.533333
0.541667
0.550000
0.550000
0.545833
0.541667
0.545833
0.541667
0.545833
0.541667
0.537500
0.537500
0.550000
0.554167
0.550000
0.558333
0.541667
0.550000
0.554167
0.554167
0.554167
0.554167
0.550000
0.554167
0.554167
0.554167
0.562500
0.550000
0.550000
0.554167
0.554167
0.550000
0.545833
0.550000
0.558333
0.554167
0.558333
0.550000
0.550000
0.545833
0.541667
0.550000
0.541667
0.545833
0.541667
0.550000
0.545833
0.541667
0.545833
0.545833
0.545833
0.550000
0.545833
0.550000
0.545833
0.554167
0.558333
0.550000
0.545833
0.554167
0.545833
0.554167
0.558333
0.545833
0.545833
0.545833
0.550000
0.545833
1.091667
0.537500
0.545833
0.545833
0.541667
1.079167
0.550000
0.554167
0.554167
0.562500
0.554167
0.558333
0.566667
0.575000
0.575000
0.570833
0.566667
0.562500
0.562500
0.562500
0.562500
0.554167
0.554167
0.554167
0.558333
1.116667
0.558333
0.554167
0.558333
0.554167
0.545833
0.550000
0.562500
0.562500
0.562500
0.566667
0.558333
0.558333
0.566667
0.566667
0.554167
0.550000
0.550000
0.554167
0.562500
0.545833
0.558333
0.562500
0.554167
0.562500
0.558333
0.550000
0.550000
0.558333
0.558333
0.562500
0.558333
0.554167
0.554167
0.558333
0.554167
0.558333
0.550000
0.558333
0.566667
0.566667
0.562500
0.558333
0.562500
0.558333
0.566667
0.554167
0.566667
0.554167
0.558333
0.562500
0.575000
0.570833
0.566667
0.558333
0.562500
0.562500
0.570833
0.570833
0.562500
0.558333
0.570833
0.566667
0.566667
0.575000
0.554167
0.562500
0.566667
0.562500
0.558333
0.550000
0.558333
0.558333
0.566667
0.583333
0.566667
0.566667
0.570833
0.575000
0.575000
0.579167
0.570833
0.562500
0.558333
0.558333
0.558333
0.570833
0.570833
0.575000
0.575000
0.583333
0.570833
0.570833
0.570833
0.570833
0.562500
0.558333
0.566667
0.562500
0.558333
0.550000
0.550000
0.554167
0.554167
0.541667
0.550000
0.550000
0.550000
0.550000
0.541667
0.550000
0.550000
0.550000
0.554167
0.541667
0.545833
0.554167
0.558333
0.558333
0.558333
0.550000
0.558333
0.558333
0.570833
0.575000
0.562500
0.562500
0.570833
0.566667
0.566667
0.558333
0.558333
0.558333
0.562500
0.570833
0.575000
0.570833
0.566667
0.570833
0.579167
0.575000
0.570833
0.566667
0.570833
0.587500
0.583333
0.579167
0.583333
0.570833
0.575000
0.583333
0.579167
0.575000
0.575000
0.579167
0.587500
0.583333
0.566667
0.575000
0.575000
0.583333
0.583333
0.575000
0.562500
0.575000
0.575000
0.579167
0.566667
0.575000
0.583333
0.587500
0.587500
0.583333
0.562500
0.570833
0.583333
0.583333
0.570833
0.566667
0.579167
0.575000
0.583333
0.579167
0.579167
0.583333
0.583333
0.587500
0.595833
0.583333
0.587500
0.604167
0.595833
0.595833
0.583333
0.575000
0.575000
0.579167
0.579167
0.583333
0.575000
0.570833
0.575000
0.579167
0.570833
0.575000
0.591667
0.600000
0.612500
0.587500
0.579167
0.587500
0.604167
0.591667
0.600000
0.583333
0.575000
0.595833
0.604167
0.604167
0.604167
0.579167
0.595833
0.591667
0.591667
0.591667
0.587500
0.570833
0.579167
0.583333
0.579167
0.583333
0.575000
0.575000
0.583333
0.587500
0.575000
0.575000
0.575000
0.570833
0.575000
0.587500
0.587500
0.583333
0.366667
0.775000
0.579167
0.583333
0.579167
0.575000
0.570833
0.575000
0.608333
0.595833
0.595833
0.587500
0.579167
0.579167
0.583333
0.591667
0.583333
0.579167
0.583333
0.583333
0.579167
0.583333
0.570833
0.566667
0.575000
