0.308333
0.304167
0.312500
0.312500
0.304167
0.295833
0.320833
0.341667
0.358333
0.320833
0.304167
0.304167
0.300000
0.325000
0.354167
0.337500
0.320833
0.608333
0.404167
0.350000
0.325000
0.312500
0.316667
0.304167
0.341667
0.333333
0.458333
0.337500
0.320833
0.304167
0.308333
0.358333
0.333333
0.325000
0.320833
0.333333
0.295833
0.304167
0.308333
0.308333
0.325000
0.300000
0.308333
0.325000
0.304167
0.320833
0.325000
0.329167
0.329167
0.337500
0.341667
0.325000
0.312500
0.320833
0.316667
0.329167
0.329167
0.304167
0.308333
0.320833
0.325000
0.325000
0.341667
0.333333
0.337500
0.341667
0.312500
0.304167
0.333333
0.320833
0.329167
0.312500
0.325000
0.329167
0.329167
0.337500
0.350000
0.329167
0.354167
0.354167
0.337500
0.345833
0.358333
0.350000
0.316667
0.312500
0.312500
0.320833
0.304167
0.316667
0.325000
0.341667
0.341667
0.354167
0.350000
0.341667
0.345833
0.325000
0.387500
0.316667
0.416667
0.416667
0.350000
0.341667
0.341667
0.329167
0.400000
0.362500
0.341667
0.341667
0.337500
0.379167
0.370833
0.379167
0.345833
0.329167
0.329167
0.408333
0.366667
0.325000
0.312500
0.312500
0.325000
0.300000
0.345833
0.320833
0.320833
0.337500
0.354167
0.387500
0.350000
0.350000
0.325000
0.329167
0.354167
0.333333
0.312500
0.283333
0.316667
0.304167
0.279167
0.287500
0.329167
0.345833
0.345833
0.391667
0.345833
0.333333
0.333333
0.337500
0.358333
0.350000
0.379167
0.395833
0.433333
0.341667
0.316667
0.345833
0.354167
0.362500
0.329167
0.304167
0.320833
0.316667
0.312500
0.325000
0.316667
0.333333
0.337500
0.341667
0.520833
0.500000
1.508333
1.612500
1.370833
1.350000
0.750000
0.850000
0.904167
0.695833
0.720833
1.166667
0.816667
0.837500
0.825000
0.804167
0.750000
0.754167
0.750000
0.833333
1.125000
0.837500
0.825000
0.825000
0.829167
0.816667
0.804167
0.791667
0.783333
0.745833
0.733333
0.716667
0.687500
0.700000
1.166667
0.741667
0.691667
0.670833
0.845833
0.679167
1.133333
0.854167
0.841667
0.820833
0.816667
0.816667
0.825000
0.804167
0.445833
1.145833
0.800000
0.816667
0.804167
0.816667
0.800000
0.800000
0.808333
0.808333
0.800000
0.800000
0.800000
0.808333
0.800000
0.800000
0.795833
0.808333
0.787500
0.816667
0.804167
0.791667
0.820833
0.804167
0.800000
0.808333
0.808333
0.800000
0.812500
0.795833
0.808333
0.804167
0.804167
0.795833
0.808333
0.800000
0.804167
0.791667
0.804167
0.800000
0.804167
0.795833
0.800000
0.800000
0.800000
0.433333
1.112500
0.750000
0.620833
0.587500
0.566667
0.795833
0.600000
0.575000
0.637500
0.616667
0.683333
0.620833
0.645833
0.629167
0.629167
0.645833
0.629167
0.645833
0.641667
0.633333
0.637500
0.633333
0.579167
0.683333
0.945833
0.425000
0.962500
0.429167
1.204167
0.437500
1.162500
0.850000
0.837500
0.816667
0.833333
0.816667
0.825000
0.800000
0.820833
0.808333
0.812500
0.808333
0.808333
0.800000
0.812500
0.791667
0.808333
0.795833
0.558333
0.445833
0.587500
0.470833
1.237500
0.700000
0.504167
0.375000
1.120833
0.816667
0.695833
0.400000
0.316667
0.579167
0.804167
0.420833
0.900000
0.695833
0.520833
0.391667
0.525000
0.683333
0.637500
1.512500
1.616667
0.758333
0.420833
0.920833
0.770833
0.733333
0.733333
0.729167
0.737500
0.720833
0.445833
0.700000
0.650000
0.612500
0.608333
0.604167
0.629167
0.604167
0.645833
0.679167
0.650000
0.641667
0.650000
0.645833
0.650000
0.654167
0.629167
0.587500
0.662500
0.629167
0.633333
0.645833
0.633333
0.637500
0.629167
0.625000
0.629167
0.629167
0.616667
0.633333
0.637500
0.616667
0.691667
0.754167
0.570833
0.637500
0.591667
0.650000
0.641667
0.691667
0.670833
0.645833
0.654167
0.741667
0.554167
0.600000
0.625000
0.633333
0.637500
0.679167
0.645833
0.558333
0.625000
0.641667
0.641667
0.612500
0.691667
0.658333
0.645833
0.641667
0.641667
0.604167
0.608333
0.633333
0.612500
0.620833
0.633333
0.629167
0.625000
0.625000
0.616667
0.633333
0.629167
0.616667
0.616667
0.629167
0.625000
0.637500
0.633333
0.637500
0.625000
0.637500
0.633333
0.637500
0.625000
0.641667
0.729167
0.537500
0.625000
0.625000
0.625000
0.637500
0.629167
0.633333
0.625000
0.637500
0.633333
0.687500
0.654167
0.616667
0.583333
0.625000
0.637500
0.633333
0.625000
0.612500
0.620833
0.625000
0.625000
0.616667
0.625000
0.625000
0.616667
0.616667
0.612500
0.620833
0.620833
0.633333
0.625000
0.625000
0.616667
0.604167
0.629167
0.612500
0.612500
0.620833
0.620833
0.616667
0.625000
0.608333
0.608333
0.616667
0.608333
0.612500
0.608333
0.625000
0.633333
0.633333
0.625000
0.620833
0.616667
0.620833
0.625000
0.620833
0.616667
0.608333
0.629167
0.616667
0.662500
0.616667
0.620833
0.608333
0.612500
0.620833
0.616667
0.612500
0.616667
0.620833
0.625000
0.620833
0.625000
0.612500
0.620833
0.625000
0.612500
0.616667
0.625000
0.616667
0.616667
0.625000
0.612500
0.629167
0.625000
0.629167
0.629167
0.620833
0.620833
0.625000
0.633333
0.616667
0.625000
0.616667
0.616667
0.629167
0.629167
0.629167
0.629167
0.612500
0.629167
0.616667
0.629167
0.608333
0.616667
0.620833
0.629167
0.612500
0.620833
0.679167
0.633333
0.583333
0.375000
1.312500
0.850000
0.825000
0.825000
0.816667
0.816667
0.808333
0.816667
0.808333
0.808333
0.804167
0.808333
0.800000
0.800000
0.808333
0.808333
0.791667
0.804167
0.612500
0.966667
0.791667
0.791667
0.791667
0.795833
0.791667
0.787500
0.787500
0.795833
0.791667
0.800000
0.787500
0.787500
0.800000
0.795833
0.783333
0.795833
0.791667
0.800000
0.791667
0.795833
0.795833
0.800000
0.795833
0.795833
0.791667
0.800000
0.795833
0.791667
0.795833
0.791667
0.795833
0.795833
0.800000
0.662500
0.508333
0.387500
0.345833
0.354167
0.316667
0.304167
1.162500
0.720833
0.700000
0.637500
0.725000
0.662500
0.816667
0.804167
0.812500
0.795833
0.808333
0.795833
0.787500
0.795833
0.795833
0.787500
0.791667
0.783333
0.450000
0.608333
0.412500
0.337500
0.404167
0.391667
0.500000
0.508333
0.908333
1.162500
0.795833
0.454167
0.741667
1.412500
0.779167
0.808333
0.641667
0.600000
0.608333
0.891667
1.091667
0.704167
0.737500
1.308333
0.720833
0.587500
0.845833
0.900000
0.837500
1.008333
0.716667
0.450000
0.729167
0.637500
0.670833
0.512500
1.154167
0.966667
0.825000
0.691667
0.579167
0.575000
0.620833
0.604167
0.950000
0.525000
1.270833
0.837500
1.279167
0.708333
0.541667
0.408333
0.595833
0.612500
0.645833
0.633333
0.641667
0.641667
0.395833
1.108333
0.854167
0.833333
0.829167
0.829167
0.825000
0.687500
0.395833
0.433333
0.379167
0.558333
0.266667
0.316667
1.229167
0.712500
0.500000
0.520833
1.241667
0.712500
0.512500
0.379167
0.620833
0.654167
0.587500
0.412500
0.350000
0.329167
0.325000
0.308333
0.291667
0.300000
0.333333
0.491667
0.354167
0.316667
0.370833
0.475000
0.350000
0.433333
0.354167
0.291667
0.287500
0.308333
0.316667
0.325000
0.300000
0.333333
0.337500
0.304167
0.283333
0.320833
0.325000
0.316667
0.337500
0.333333
0.333333
0.337500
0.329167
0.316667
0.304167
0.337500
0.416667
0.375000
0.379167
0.337500
0.316667
0.316667
0.320833
0.387500
0.354167
0.350000
0.337500
0.333333
0.333333
0.487500
0.408333
0.354167
0.337500
0.325000
0.341667
0.337500
0.337500
0.333333
0.329167
0.312500
0.337500
0.366667
0.570833
0.370833
0.333333
0.408333
0.370833
0.333333
0.325000
0.325000
0.308333
0.329167
0.337500
0.337500
0.333333
0.325000
0.320833
0.341667
0.387500
0.341667
0.350000
0.358333
0.337500
0.329167
0.333333
0.329167
0.316667
0.329167
0.337500
0.337500
0.325000
0.370833
0.350000
0.341667
0.379167
0.341667
0.320833
0.337500
0.333333
0.333333
0.333333
0.325000
0.316667
0.333333
0.333333
0.320833
0.379167
0.316667
0.341667
0.337500
0.387500
0.358333
0.362500
0.591667
0.370833
0.337500
0.345833
0.320833
0.345833
0.370833
0.345833
0.325000
0.333333
0.316667
0.325000
0.379167
0.345833
0.362500
0.333333
0.358333
0.325000
0.333333
0.341667
0.341667
0.345833
0.325000
0.316667
0.320833
0.329167
0.312500
0.333333
0.333333
0.350000
0.362500
0.333333
0.320833
0.300000
0.320833
0.370833
0.370833
0.337500
0.354167
0.341667
0.354167
0.370833
0.333333
0.333333
0.333333
0.333333
0.325000
0.308333
0.358333
0.362500
0.387500
0.533333
0.370833
0.337500
0.341667
0.329167
0.304167
0.312500
0.337500
0.320833
0.333333
0.354167
0.420833
0.358333
0.345833
0.358333
0.337500
0.329167
0.333333
0.333333
0.350000
0.354167
0.341667
0.341667
0.341667
0.337500
0.391667
0.412500
0.329167
0.337500
0.358333
0.433333
0.483333
0.354167
0.333333
0.325000
0.375000
0.437500
0.350000
0.325000
0.316667
0.308333
0.358333
0.337500
0.345833
0.445833
0.329167
0.329167
0.354167
0.350000
0.345833
0.333333
0.395833
0.350000
0.395833
0.437500
0.341667
0.325000
0.329167
0.329167
0.329167
0.412500
0.379167
0.337500
0.333333
0.370833
0.333333
0.300000
0.308333
0.391667
0.316667
0.304167
0.354167
0.370833
0.341667
0.341667
0.370833
0.333333
0.333333
0.337500
0.333333
0.333333
0.362500
0.379167
0.341667
0.366667
0.337500
0.366667
0.358333
0.337500
0.350000
0.333333
0.333333
0.320833
0.341667
0.379167
0.320833
0.341667
0.366667
0.450000
0.475000
0.366667
0.370833
0.345833
0.337500
0.325000
0.320833
0.329167
0.337500
0.345833
0.362500
0.329167
0.304167
0.329167
0.408333
0.362500
0.320833
0.341667
0.362500
0.362500
0.358333
0.337500
0.350000
0.329167
0.316667
0.329167
0.379167
0.420833
0.337500
0.283333
0.325000
0.354167
0.316667
0.404167
0.433333
0.337500
0.341667
0.345833
0.325000
0.308333
0.312500
0.383333
0.541667
0.354167
0.329167
0.487500
0.633333
0.325000
0.308333
0.366667
0.441667
0.354167
0.333333
0.325000
0.325000
0.316667
0.329167
0.370833
0.362500
0.333333
0.341667
0.358333
0.341667
0.450000
0.337500
0.341667
0.333333
0.362500
0.420833
0.375000
0.341667
0.416667
0.370833
0.337500
0.316667
0.320833
0.341667
0.333333
0.345833
0.337500
0.358333
0.395833
0.375000
0.416667
0.379167
0.325000
0.333333
0.387500
0.362500
0.329167
0.329167
0.325000
0.366667
0.333333
0.370833
0.354167
0.362500
0.366667
0.333333
0.408333
0.387500
0.329167
0.366667
0.429167
0.366667
0.329167
0.304167
0.295833
0.325000
0.329167
0.341667
0.345833
0.354167
0.337500
0.333333
0.333333
0.320833
0.320833
0.325000
0.333333
0.350000
0.358333
0.383333
0.387500
0.350000
0.354167
0.325000
0.345833
0.354167
0.350000
0.358333
0.337500
0.400000
0.391667
0.333333
0.320833
0.333333
0.337500
0.350000
0.375000
0.366667
0.337500
0.312500
0.333333
0.383333
0.379167
0.333333
0.337500
0.345833
0.345833
0.341667
0.325000
0.337500
0.341667
0.333333
0.320833
0.341667
0.354167
0.391667
0.475000
0.412500
0.404167
0.341667
0.300000
0.329167
0.329167
0.295833
0.341667
0.408333
0.341667
0.329167
0.333333
0.358333
0.383333
0.375000
0.362500
0.337500
0.354167
0.350000
0.329167
0.337500
0.341667
0.354167
0.345833
0.337500
0.329167
0.366667
0.550000
0.350000
0.308333
0.220833
0.429167
0.416667
0.362500
0.337500
0.358333
0.316667
0.350000
0.337500
0.358333
0.333333
0.420833
0.425000
0.366667
0.370833
0.337500
0.312500
0.304167
0.329167
0.341667
0.316667
0.333333
0.341667
0.337500
0.320833
0.320833
0.341667
0.345833
0.337500
0.341667
0.329167
0.341667
0.325000
0.379167
0.345833
0.337500
0.487500
0.433333
0.370833
0.337500
0.404167
0.416667
0.375000
0.320833
0.345833
0.341667
0.341667
0.325000
0.333333
0.333333
0.408333
0.366667
0.329167
0.375000
0.400000
0.395833
0.370833
0.358333
0.333333
0.325000
0.312500
0.358333
0.425000
0.358333
0.308333
0.304167
0.329167
0.333333
0.383333
0.379167
0.329167
0.312500
0.312500
0.337500
0.350000
