0.216667
0.320833
0.408333
0.312500
0.304167
0.295833
0.212500
0.441667
0.333333
0.220833
0.383333
0.300000
0.308333
0.308333
0.304167
0.312500
0.212500
0.466667
0.320833
0.308333
0.212500
0.433333
0.316667
0.308333
0.308333
0.208333
0.441667
0.312500
0.291667
0.212500
0.312500
0.325000
0.312500
0.300000
0.329167
0.450000
0.220833
0.404167
0.283333
0.300000
0.208333
0.437500
0.216667
0.333333
0.341667
0.337500
0.408333
0.212500
0.404167
0.312500
0.212500
0.412500
0.212500
0.441667
0.354167
0.345833
0.216667
0.325000
0.304167
0.391667
0.308333
0.325000
0.350000
0.212500
0.350000
0.408333
0.295833
0.287500
0.208333
0.637500
0.108333
0.525000
0.216667
0.458333
0.295833
0.308333
0.212500
0.420833
0.341667
0.337500
0.216667
0.700000
0.541667
0.404167
0.475000
0.337500
0.312500
0.212500
0.387500
0.208333
0.416667
0.608333
0.370833
0.312500
0.270833
0.325000
0.329167
0.345833
0.216667
0.458333
0.479167
0.329167
0.270833
0.270833
0.283333
0.295833
0.295833
0.291667
0.212500
0.391667
0.350000
0.216667
0.466667
0.341667
0.304167
0.304167
0.345833
0.670833
0.116667
0.691667
0.329167
0.379167
0.220833
0.420833
0.316667
0.300000
0.287500
0.212500
0.429167
0.391667
0.379167
0.404167
0.333333
0.316667
0.495833
0.329167
0.279167
0.350000
0.337500
0.295833
0.279167
0.300000
0.212500
0.400000
0.216667
0.308333
0.387500
0.312500
0.308333
0.291667
0.275000
0.304167
0.437500
0.337500
0.291667
0.287500
0.308333
0.304167
0.291667
0.308333
0.212500
0.825000
0.116667
0.425000
0.287500
0.337500
0.220833
0.445833
0.287500
0.304167
0.300000
0.320833
0.208333
0.433333
0.341667
0.350000
0.341667
0.345833
0.212500
0.337500
0.312500
0.370833
0.279167
0.295833
0.212500
0.479167
0.329167
0.316667
0.316667
0.304167
0.216667
0.320833
0.758333
0.112500
0.425000
0.216667
0.333333
0.416667
0.320833
0.345833
0.320833
0.304167
0.208333
0.425000
0.320833
0.212500
0.320833
0.329167
0.445833
0.320833
0.312500
0.208333
0.425000
0.212500
0.433333
0.216667
0.316667
0.437500
0.433333
0.625000
0.216667
0.350000
0.341667
0.329167
0.212500
0.445833
0.291667
0.308333
0.333333
0.325000
0.354167
0.366667
0.225000
0.470833
0.225000
0.500000
0.333333
0.316667
0.312500
0.341667
0.212500
0.487500
0.220833
0.395833
0.329167
0.341667
0.320833
0.325000
0.216667
0.437500
0.350000
0.337500
0.358333
0.350000
0.216667
0.391667
0.287500
0.208333
0.325000
0.308333
0.450000
0.216667
0.683333
0.337500
0.354167
0.220833
0.437500
0.329167
0.333333
0.320833
0.295833
0.283333
0.300000
0.212500
0.325000
0.466667
0.345833
0.337500
0.337500
0.216667
0.641667
0.108333
0.429167
0.287500
0.287500
0.291667
0.295833
0.333333
0.341667
0.325000
0.291667
0.304167
0.300000
0.208333
0.433333
0.308333
0.320833
0.212500
0.412500
0.295833
0.345833
0.212500
0.416667
0.295833
0.316667
0.212500
0.429167
0.212500
0.329167
0.420833
0.216667
0.437500
0.316667
0.325000
0.208333
0.345833
0.433333
0.216667
0.329167
0.391667
0.304167
0.316667
0.312500
0.212500
0.329167
0.429167
0.325000
0.325000
0.312500
0.212500
0.458333
0.312500
0.283333
0.300000
0.208333
0.512500
0.370833
0.220833
0.329167
0.395833
0.287500
0.308333
0.287500
0.295833
0.329167
0.329167
0.212500
0.408333
0.312500
0.216667
0.458333
0.345833
0.212500
0.333333
0.329167
0.470833
0.208333
0.416667
0.300000
0.333333
0.354167
0.216667
0.433333
0.325000
0.291667
0.212500
0.479167
0.366667
0.337500
0.333333
0.520833
0.229167
0.329167
0.308333
0.475000
0.358333
0.333333
0.212500
0.408333
0.291667
0.295833
0.354167
0.358333
0.212500
0.529167
0.370833
0.329167
0.216667
0.387500
0.291667
0.208333
0.475000
0.350000
0.216667
0.416667
0.208333
0.312500
0.387500
0.325000
0.345833
0.337500
0.337500
0.333333
0.529167
0.345833
0.295833
0.291667
0.304167
0.383333
0.220833
0.408333
0.337500
0.212500
0.416667
0.291667
0.295833
0.300000
0.300000
0.208333
0.395833
0.300000
0.208333
0.425000
0.304167
0.304167
0.316667
0.216667
0.491667
0.354167
0.391667
0.487500
0.487500
0.391667
0.329167
0.312500
0.320833
0.320833
0.316667
0.308333
0.316667
0.308333
0.212500
0.454167
0.312500
0.300000
0.341667
0.212500
0.408333
0.208333
0.437500
0.341667
0.212500
0.329167
0.408333
0.312500
0.345833
0.629167
0.108333
0.425000
0.216667
0.387500
0.279167
0.204167
0.425000
0.316667
0.208333
0.437500
0.445833
0.220833
0.320833
0.295833
0.412500
0.300000
0.212500
0.312500
0.433333
0.304167
0.320833
0.329167
0.316667
0.295833
0.316667
0.212500
0.404167
0.354167
0.337500
0.212500
0.437500
0.291667
0.295833
0.333333
0.316667
0.333333
0.345833
0.216667
0.429167
0.366667
0.487500
0.400000
0.220833
0.525000
0.358333
0.350000
0.354167
0.308333
0.295833
0.329167
0.308333
0.304167
0.212500
0.404167
0.208333
0.458333
0.216667
0.420833
0.316667
0.329167
0.316667
0.312500
0.320833
0.208333
0.679167
0.275000
0.216667
0.437500
0.304167
0.300000
0.304167
0.295833
0.308333
0.304167
0.370833
0.437500
0.808333
1.800000
0.945833
1.254167
0.887500
0.862500
0.858333
0.758333
0.808333
1.175000
0.900000
0.829167
0.825000
0.745833
0.745833
0.795833
1.125000
0.941667
0.837500
0.741667
0.737500
0.650000
0.720833
0.733333
0.841667
0.733333
0.645833
0.833333
0.637500
0.829167
0.737500
0.650000
0.825000
0.650000
0.741667
0.833333
0.645833
0.741667
0.741667
0.737500
0.741667
0.741667
0.829167
0.654167
0.833333
0.650000
0.829167
0.645833
0.745833
0.737500
0.733333
0.745833
0.737500
0.733333
0.737500
0.741667
0.733333
0.729167
0.733333
0.733333
0.733333
0.725000
0.733333
0.820833
0.729167
0.633333
0.733333
0.725000
0.816667
0.629167
0.729167
0.720833
0.825000
0.708333
0.637500
0.720833
0.725000
0.716667
0.725000
0.720833
0.720833
0.712500
0.812500
0.720833
0.725000
0.620833
0.808333
0.716667
0.720833
0.712500
0.625000
0.716667
0.716667
0.712500
0.804167
0.625000
0.804167
0.620833
0.708333
0.712500
0.804167
0.616667
0.795833
0.712500
0.708333
0.704167
0.704167
0.616667
0.795833
0.612500
0.795833
0.608333
0.795833
0.608333
0.700000
0.795833
0.608333
0.787500
0.700000
0.612500
0.791667
0.695833
0.604167
0.791667
0.604167
0.787500
0.604167
0.787500
0.700000
0.695833
0.691667
0.604167
0.787500
0.695833
0.687500
0.695833
0.695833
0.695833
0.687500
0.604167
0.691667
0.791667
0.687500
0.691667
0.691667
0.600000
0.779167
0.695833
0.695833
0.687500
0.595833
0.787500
0.595833
0.783333
0.691667
0.691667
0.687500
0.687500
0.695833
0.595833
0.779167
0.691667
0.691667
0.591667
0.687500
0.779167
0.691667
0.683333
0.683333
0.683333
0.687500
0.316667
0.645833
0.650000
0.920833
0.333333
0.670833
0.579167
0.712500
0.591667
0.670833
0.670833
0.641667
1.250000
0.616667
0.679167
0.695833
0.658333
0.633333
0.654167
1.004167
0.412500
0.954167
0.716667
0.708333
0.583333
0.300000
0.333333
0.250000
0.533333
0.233333
0.304167
0.316667
0.304167
0.295833
0.295833
0.316667
0.458333
0.187500
0.300000
0.329167
0.320833
0.308333
0.341667
0.362500
0.341667
0.350000
0.329167
0.304167
0.291667
0.279167
0.300000
0.554167
0.245833
0.320833
0.325000
0.316667
0.295833
0.320833
0.329167
0.316667
0.316667
0.320833
0.300000
0.337500
0.350000
0.325000
0.320833
0.312500
0.312500
0.337500
0.337500
0.233333
0.416667
0.316667
0.312500
0.312500
0.325000
0.316667
0.320833
0.312500
0.316667
0.333333
0.320833
0.320833
0.325000
0.341667
0.329167
0.325000
0.320833
0.312500
0.312500
0.333333
0.320833
0.312500
0.416667
0.337500
0.308333
0.325000
0.233333
0.400000
0.300000
0.308333
0.337500
0.333333
0.320833
0.304167
0.300000
0.300000
0.229167
0.450000
0.329167
0.341667
0.329167
0.300000
0.308333
0.312500
0.220833
0.408333
0.325000
0.308333
0.304167
0.320833
0.320833
0.316667
0.312500
0.304167
0.225000
0.404167
0.229167
0.450000
0.225000
0.450000
0.312500
0.291667
0.300000
0.220833
0.320833
0.412500
0.308333
0.312500
0.216667
0.333333
0.420833
0.220833
0.433333
0.316667
0.320833
0.320833
0.304167
0.308333
0.216667
0.441667
0.220833
0.333333
0.325000
0.337500
0.433333
0.320833
0.312500
0.295833
0.304167
0.216667
0.329167
0.325000
0.437500
0.308333
0.316667
0.325000
0.304167
0.308333
0.216667
0.416667
0.308333
0.312500
0.220833
0.395833
0.220833
0.408333
0.300000
0.220833
0.308333
0.475000
0.225000
0.358333
0.433333
0.304167
0.220833
0.325000
0.433333
0.312500
0.295833
0.216667
0.416667
0.312500
0.329167
0.220833
0.412500
0.275000
0.287500
0.316667
0.304167
0.304167
0.266667
0.300000
0.312500
0.304167
0.312500
0.212500
0.433333
0.308333
0.345833
0.333333
0.220833
0.508333
0.316667
0.325000
0.216667
0.400000
0.295833
0.212500
0.508333
0.333333
0.295833
0.295833
0.312500
0.304167
0.320833
0.308333
0.220833
0.470833
0.525000
0.341667
0.304167
0.295833
0.212500
0.329167
0.425000
0.362500
0.495833
0.341667
0.312500
0.300000
0.300000
0.304167
0.308333
0.316667
0.295833
0.291667
0.216667
0.316667
0.425000
0.354167
0.345833
0.329167
0.370833
0.341667
0.316667
0.212500
0.416667
0.316667
0.370833
0.225000
0.475000
0.220833
0.445833
0.220833
0.350000
0.337500
0.412500
0.283333
0.295833
0.216667
0.408333
0.295833
0.312500
0.312500
0.304167
0.304167
0.300000
0.350000
0.383333
0.454167
0.395833
0.483333
0.325000
0.287500
0.300000
0.212500
0.400000
0.304167
0.208333
0.550000
0.491667
0.337500
0.287500
0.300000
0.295833
0.283333
0.312500
0.216667
0.404167
0.212500
0.441667
0.220833
0.433333
0.304167
0.325000
0.216667
0.495833
0.312500
0.279167
0.320833
0.212500
0.454167
0.312500
0.295833
0.212500
0.520833
0.441667
0.412500
0.329167
0.308333
0.295833
0.300000
0.291667
0.212500
0.312500
0.483333
0.316667
0.312500
0.212500
0.395833
0.287500
0.208333
0.545833
0.337500
0.300000
0.291667
0.304167
0.337500
0.312500
0.300000
0.308333
0.304167
0.329167
0.300000
0.308333
0.375000
0.220833
0.416667
0.212500
0.316667
0.408333
0.312500
0.325000
0.220833
0.333333
0.412500
0.287500
0.208333
0.329167
0.312500
0.562500
0.345833
0.320833
0.216667
0.466667
0.325000
0.216667
0.345833
0.491667
0.220833
0.345833
0.437500
0.295833
0.291667
0.316667
0.216667
0.612500
0.345833
0.316667
0.216667
0.412500
0.304167
0.312500
0.283333
0.308333
0.320833
0.404167
0.500000
0.337500
0.295833
0.212500
0.470833
0.329167
0.295833
0.300000
0.329167
0.312500
0.300000
0.295833
0.275000
0.208333
0.325000
0.420833
0.325000
0.212500
0.483333
0.337500
0.316667
0.300000
0.295833
0.304167
0.287500
0.337500
0.337500
0.295833
0.291667
0.212500
0.316667
0.441667
0.220833
0.491667
0.229167
0.391667
0.283333
0.300000
0.375000
0.345833
0.320833
0.295833
0.300000
0.208333
0.304167
0.325000
0.354167
0.420833
0.295833
0.312500
0.220833
0.395833
0.320833
0.216667
0.312500
0.420833
0.312500
0.300000
0.325000
0.325000
0.212500
0.316667
0.404167
0.320833
0.212500
0.458333
0.325000
0.329167
0.304167
0.216667
0.387500
0.312500
0.212500
0.325000
0.379167
0.416667
0.287500
0.304167
0.212500
0.350000
0.470833
0.216667
0.412500
0.212500
0.408333
0.212500
0.341667
0.441667
0.208333
0.325000
0.479167
0.216667
0.337500
0.304167
0.425000
0.212500
0.454167
0.300000
0.308333
0.212500
0.416667
0.208333
0.325000
0.320833
0.337500
0.354167
0.516667
0.387500
0.470833
0.229167
0.350000
0.304167
0.487500
0.225000
0.416667
0.212500
0.350000
0.454167
0.316667
0.304167
0.329167
0.216667
0.470833
0.316667
0.316667
0.212500
0.333333
0.470833
0.341667
1.450000
1.391667
0.870833
0.862500
1.141667
0.912500
0.870833
0.837500
0.766667
0.779167
0.883333
1.191667
0.816667
0.841667
0.750000
0.741667
0.725000
0.741667
0.733333
0.633333
0.833333
0.737500
0.737500
0.650000
0.829167
0.741667
0.645833
0.829167
0.741667
0.737500
0.737500
0.741667
0.645833
0.737500
0.829167
0.741667
0.745833
0.645833
0.741667
0.833333
0.733333
0.741667
0.745833
0.641667
0.737500
0.833333
0.733333
0.737500
0.641667
0.825000
0.637500
0.733333
0.825000
0.729167
0.720833
0.637500
0.725000
0.816667
0.633333
0.725000
0.812500
0.725000
0.716667
0.633333
0.716667
0.808333
0.716667
0.720833
0.620833
0.804167
0.712500
0.625000
0.804167
0.708333
0.625000
0.800000
0.712500
0.708333
0.620833
0.800000
0.712500
0.704167
0.712500
0.612500
0.800000
0.612500
0.704167
0.704167
0.795833
0.700000
0.704167
0.704167
0.700000
0.700000
0.608333
0.700000
0.791667
0.604167
0.791667
0.700000
0.691667
0.608333
0.787500
0.700000
0.691667
0.604167
0.787500
0.700000
0.691667
0.695833
0.695833
0.695833
0.695833
0.695833
0.604167
0.695833
0.783333
0.695833
0.695833
0.695833
0.695833
0.687500
0.695833
0.700000
0.691667
0.695833
0.695833
0.691667
0.695833
0.600000
0.695833
0.787500
0.695833
0.691667
0.600000
0.787500
0.695833
0.687500
0.691667
0.600000
0.787500
0.600000
0.787500
0.691667
0.691667
0.600000
0.783333
0.691667
0.691667
0.600000
0.779167
0.600000
0.783333
0.691667
0.687500
0.687500
0.595833
0.783333
0.687500
0.691667
0.425000
0.612500
0.670833
0.612500
0.454167
1.416667
0.704167
0.779167
0.608333
0.654167
0.616667
0.675000
0.629167
1.441667
0.729167
0.729167
0.920833
1.429167
0.700000
0.583333
0.841667
0.704167
0.700000
0.558333
0.366667
0.187500
0.695833
0.541667
0.679167
0.604167
0.641667
0.608333
0.562500
0.595833
0.470833
0.820833
0.812500
0.720833
