0.550000
0.554167
0.554167
0.558333
0.554167
0.550000
0.550000
0.554167
0.558333
0.550000
0.550000
0.550000
0.550000
0.554167
0.558333
0.550000
0.550000
0.550000
0.550000
0.554167
0.558333
0.550000
0.554167
0.554167
0.554167
0.558333
0.562500
0.554167
0.558333
0.554167
0.558333
0.562500
0.558333
0.558333
0.558333
0.558333
0.562500
0.558333
0.558333
0.554167
0.558333
0.562500
0.554167
0.558333
0.554167
0.562500
0.554167
0.558333
0.558333
0.558333
0.562500
0.558333
0.558333
0.558333
0.558333
0.562500
0.558333
0.562500
0.558333
0.562500
0.558333
0.554167
0.558333
0.558333
0.562500
0.562500
0.554167
0.554167
0.558333
0.562500
0.245833
0.308333
0.558333
0.554167
0.554167
0.562500
0.558333
0.450000
0.662500
0.562500
0.562500
0.558333
0.558333
0.558333
0.558333
0.566667
0.558333
0.558333
0.562500
0.562500
0.562500
0.416667
0.704167
0.566667
0.562500
0.562500
0.558333
0.566667
0.566667
0.562500
0.562500
0.558333
0.562500
0.566667
0.562500
0.558333
0.558333
0.562500
0.562500
0.558333
0.558333
0.558333
0.562500
0.566667
0.558333
0.554167
0.558333
0.562500
0.562500
0.558333
0.558333
0.558333
0.562500
0.562500
0.558333
0.554167
0.558333
0.558333
0.562500
0.562500
0.558333
0.554167
0.558333
0.562500
0.558333
0.558333
0.558333
0.558333
0.558333
0.562500
0.558333
0.558333
0.554167
0.558333
0.562500
0.554167
0.558333
0.554167
0.562500
0.554167
0.558333
0.558333
0.562500
0.558333
0.554167
0.558333
0.558333
0.562500
0.566667
0.345833
0.212500
0.554167
0.558333
0.558333
0.558333
0.562500
0.554167
0.558333
0.558333
0.558333
0.558333
0.554167
0.554167
0.554167
0.562500
0.554167
0.554167
0.554167
0.558333
0.558333
0.554167
0.554167
0.558333
0.554167
0.558333
0.558333
0.554167
0.554167
0.558333
0.562500
0.558333
0.554167
0.558333
0.562500
0.554167
0.554167
0.558333
0.562500
0.558333
0.558333
0.554167
0.558333
0.566667
0.554167
0.487500
0.629167
0.562500
0.566667
0.558333
0.558333
0.562500
0.566667
0.558333
0.562500
0.558333
0.562500
0.562500
0.558333
0.562500
0.558333
0.562500
0.562500
0.562500
0.562500
0.554167
0.225000
0.337500
0.566667
0.558333
0.554167
0.562500
0.562500
0.558333
0.554167
0.558333
0.566667
0.558333
0.554167
0.716667
0.283333
0.287500
0.450000
0.262500
0.229167
0.675000
0.362500
0.625000
0.558333
0.470833
0.225000
0.800000
0.283333
0.429167
0.533333
0.358333
0.200000
0.495833
0.379167
0.087500
0.325000
0.745833
0.279167
0.854167
0.195833
0.450000
0.483333
0.650000
1.095833
1.095833
0.545833
0.545833
0.554167
0.550000
0.550000
0.545833
0.545833
0.558333
0.545833
0.550000
0.545833
0.550000
0.558333
0.550000
0.545833
0.550000
0.554167
0.554167
0.545833
0.545833
0.550000
0.550000
0.558333
0.545833
0.545833
0.550000
0.550000
0.558333
0.545833
0.545833
0.550000
0.554167
0.554167
0.550000
0.550000
0.545833
0.554167
0.558333
0.550000
0.550000
0.550000
0.554167
0.554167
0.550000
0.550000
0.550000
0.554167
0.554167
0.554167
0.550000
0.550000
0.550000
0.558333
0.554167
0.554167
0.550000
0.554167
0.558333
0.550000
0.554167
0.550000
0.554167
0.558333
0.558333
0.550000
0.554167
0.550000
0.554167
0.562500
0.554167
0.554167
0.554167
0.554167
0.562500
0.554167
0.554167
0.554167
0.558333
0.562500
0.554167
0.554167
0.554167
0.558333
0.558333
0.558333
0.550000
0.554167
0.554167
0.558333
0.558333
0.550000
0.554167
0.554167
0.558333
0.558333
0.554167
0.554167
0.558333
0.554167
0.554167
0.558333
0.554167
0.562500
0.554167
0.554167
0.554167
0.554167
0.562500
0.554167
0.554167
0.554167
0.558333
0.562500
0.550000
0.554167
0.558333
0.558333
0.558333
0.558333
0.375000
0.733333
0.554167
0.562500
0.558333
0.541667
0.566667
0.550000
0.554167
0.554167
0.558333
0.554167
0.554167
0.550000
0.550000
0.562500
0.550000
0.550000
0.554167
0.558333
0.550000
0.737500
0.366667
0.554167
0.558333
0.558333
0.516667
0.575000
0.633333
0.258333
0.345833
0.283333
0.687500
0.550000
0.554167
0.550000
0.545833
0.550000
0.554167
0.554167
0.550000
0.550000
0.545833
0.262500
0.291667
0.683333
0.425000
0.658333
0.225000
0.266667
0.504167
0.437500
0.562500
0.654167
0.554167
0.558333
0.241667
0.404167
0.454167
0.241667
0.308333
0.808333
0.295833
0.400000
0.620833
0.391667
0.687500
0.966667
0.583333
0.366667
0.333333
0.612500
0.558333
0.541667
0.554167
0.545833
0.550000
0.554167
0.554167
0.545833
0.554167
0.545833
0.654167
0.116667
0.358333
0.537500
0.562500
0.383333
0.891667
0.383333
0.579167
0.529167
0.483333
0.625000
0.687500
0.433333
0.245833
0.337500
0.525000
0.133333
0.275000
0.904167
0.462500
0.500000
0.512500
1.108333
0.229167
0.720833
0.725000
0.362500
0.191667
0.550000
0.308333
0.783333
0.437500
0.279167
0.358333
0.525000
0.700000
0.350000
0.233333
0.454167
0.475000
0.766667
0.425000
1.091667
1.112500
0.675000
0.658333
1.241667
0.216667
0.741667
0.454167
0.345833
0.375000
0.733333
1.158333
1.116667
1.112500
1.112500
1.666667
0.562500
1.116667
0.833333
0.845833
0.554167
1.683333
0.554167
0.558333
0.558333
0.545833
0.225000
0.337500
0.558333
0.320833
0.233333
0.550000
0.554167
0.554167
0.550000
0.550000
0.550000
0.558333
0.458333
0.437500
0.195833
0.545833
0.379167
0.308333
0.320833
0.429167
0.579167
0.729167
0.362500
0.725000
0.545833
0.666667
0.429167
0.541667
0.550000
0.550000
0.545833
0.545833
0.545833
0.633333
0.466667
0.545833
0.545833
0.554167
0.545833
0.545833
0.545833
0.550000
0.558333
0.545833
0.545833
0.550000
0.641667
0.458333
0.545833
0.550000
0.550000
0.550000
0.545833
0.550000
0.545833
0.550000
0.554167
0.545833
0.545833
0.550000
0.550000
0.550000
0.554167
0.545833
0.554167
0.554167
0.545833
0.550000
0.550000
0.554167
0.554167
0.545833
0.550000
0.550000
0.554167
0.558333
0.545833
0.550000
0.550000
0.554167
0.554167
0.550000
0.545833
0.550000
0.550000
0.554167
0.558333
0.550000
0.550000
0.550000
0.554167
0.558333
0.554167
0.550000
0.550000
0.558333
0.558333
0.554167
0.550000
0.554167
0.554167
0.558333
0.554167
0.550000
0.554167
0.558333
0.558333
0.558333
0.554167
0.554167
0.558333
0.558333
0.562500
0.558333
0.554167
0.558333
0.562500
0.550000
0.554167
0.554167
0.558333
0.562500
0.550000
0.554167
0.554167
0.558333
0.562500
0.554167
0.554167
0.554167
0.558333
0.562500
0.554167
0.558333
0.554167
0.558333
0.562500
0.554167
0.558333
0.558333
0.558333
0.562500
0.558333
0.554167
0.562500
0.558333
0.562500
0.562500
0.558333
0.554167
0.558333
0.558333
0.566667
0.558333
0.554167
0.558333
0.558333
0.562500
0.562500
0.554167
0.558333
0.558333
0.562500
0.558333
0.558333
0.554167
0.562500
0.562500
0.554167
0.558333
0.554167
0.562500
0.558333
0.558333
0.554167
0.554167
0.558333
0.558333
0.562500
0.554167
0.554167
0.554167
0.558333
0.562500
0.554167
0.554167
0.558333
0.558333
0.562500
0.558333
0.554167
0.558333
0.558333
0.558333
0.566667
0.554167
0.558333
0.554167
0.562500
0.562500
0.554167
0.558333
0.558333
0.554167
0.558333
0.562500
0.558333
0.554167
0.554167
0.554167
0.562500
0.562500
0.554167
0.558333
0.554167
0.558333
0.562500
0.562500
0.554167
0.558333
0.554167
0.558333
0.562500
0.558333
0.554167
0.558333
0.558333
0.558333
0.562500
0.554167
0.558333
0.554167
0.558333
0.558333
0.562500
0.554167
0.554167
0.558333
0.558333
0.558333
0.558333
0.554167
0.558333
0.558333
0.562500
0.558333
0.554167
0.558333
0.558333
0.562500
0.558333
0.558333
0.558333
0.562500
0.562500
0.558333
0.558333
0.562500
0.558333
0.566667
0.558333
0.558333
0.558333
0.562500
0.562500
0.554167
0.558333
0.562500
0.562500
0.558333
0.554167
0.558333
0.562500
0.562500
0.558333
0.562500
0.558333
0.558333
0.566667
0.558333
0.558333
0.558333
0.562500
0.566667
0.554167
0.558333
0.562500
0.562500
0.562500
0.558333
0.558333
0.558333
0.562500
0.562500
0.562500
0.558333
0.558333
0.562500
0.566667
0.558333
0.558333
0.562500
0.562500
0.566667
0.558333
0.562500
0.558333
0.562500
0.566667
0.566667
0.562500
0.562500
0.562500
0.566667
0.570833
0.562500
0.562500
0.566667
0.566667
0.566667
0.533333
0.595833
0.562500
0.566667
0.566667
0.562500
0.562500
0.566667
0.562500
0.570833
0.562500
0.562500
0.562500
0.566667
0.570833
0.562500
0.562500
0.562500
0.566667
0.570833
0.562500
0.566667
0.566667
0.570833
0.562500
0.566667
0.562500
0.566667
0.570833
0.562500
0.562500
0.562500
0.562500
0.566667
0.562500
0.558333
0.554167
0.562500
0.566667
0.554167
0.558333
0.558333
0.562500
0.558333
0.558333
0.558333
0.562500
0.566667
0.554167
0.558333
0.562500
0.566667
0.558333
0.558333
0.562500
0.566667
0.558333
0.558333
0.558333
0.562500
0.566667
0.562500
0.558333
0.562500
0.562500
0.562500
0.566667
0.558333
0.562500
0.562500
0.562500
0.566667
0.558333
0.562500
0.558333
0.566667
0.562500
0.558333
0.562500
0.562500
0.566667
0.562500
0.558333
0.562500
0.562500
0.566667
0.562500
0.558333
0.562500
0.562500
0.566667
0.566667
0.562500
0.562500
0.562500
0.566667
0.562500
0.562500
0.562500
0.562500
0.566667
0.566667
0.562500
0.562500
0.562500
0.566667
0.566667
0.562500
0.558333
0.566667
0.566667
0.562500
0.562500
0.562500
0.562500
0.566667
0.566667
0.562500
0.562500
0.562500
0.566667
0.566667
0.562500
0.562500
0.562500
0.562500
0.570833
0.562500
0.558333
0.562500
0.566667
0.570833
0.562500
0.562500
0.562500
0.566667
0.570833
0.562500
0.562500
0.562500
0.562500
0.570833
0.562500
0.562500
0.566667
0.562500
0.570833
0.558333
0.562500
0.562500
0.566667
0.566667
0.566667
0.558333
0.562500
0.566667
0.566667
0.562500
0.562500
0.558333
0.566667
0.566667
0.562500
0.562500
0.562500
0.562500
0.570833
0.558333
0.562500
0.562500
0.570833
0.658333
0.137500
0.329167
0.558333
0.566667
0.254167
0.429167
0.445833
0.562500
0.437500
0.683333
0.570833
0.558333
0.558333
0.562500
0.562500
0.566667
0.558333
0.562500
0.550000
0.579167
0.562500
0.558333
0.562500
0.562500
0.566667
0.566667
0.562500
0.562500
0.562500
0.562500
0.570833
0.558333
0.562500
0.562500
0.562500
0.566667
0.562500
0.562500
0.562500
0.566667
0.566667
0.562500
0.562500
0.566667
0.566667
0.566667
0.570833
0.570833
0.562500
0.570833
0.575000
0.570833
0.566667
0.570833
0.575000
0.570833
0.566667
0.566667
0.570833
0.570833
0.570833
0.566667
0.570833
0.566667
0.575000
0.566667
0.566667
0.566667
0.570833
0.575000
0.566667
0.566667
0.570833
0.575000
0.562500
0.566667
0.570833
0.575000
0.208333
0.366667
0.175000
0.383333
0.570833
0.579167
0.579167
0.237500
0.337500
0.200000
0.379167
0.583333
0.579167
0.579167
0.304167
0.266667
0.575000
0.583333
0.579167
0.691667
0.387500
0.437500
0.129167
0.466667
0.204167
0.591667
