0.329167
0.341667
0.358333
0.337500
0.341667
0.333333
0.329167
0.341667
0.325000
0.337500
0.350000
0.341667
0.345833
0.341667
0.375000
0.366667
0.366667
0.375000
0.337500
0.345833
0.358333
0.370833
0.375000
0.337500
0.316667
0.341667
0.366667
0.345833
0.354167
0.345833
0.325000
0.354167
0.375000
0.404167
0.383333
0.345833
0.358333
0.354167
0.345833
0.354167
0.333333
0.316667
0.362500
0.366667
0.366667
0.358333
0.341667
0.366667
0.350000
0.445833
0.470833
0.433333
0.345833
0.337500
0.333333
0.341667
0.337500
0.341667
0.333333
0.333333
0.345833
0.345833
0.333333
0.341667
0.350000
0.337500
0.333333
0.362500
0.345833
0.345833
0.366667
0.337500
0.387500
0.358333
0.533333
0.358333
0.366667
0.358333
0.341667
0.350000
0.337500
0.329167
0.341667
0.362500
0.358333
0.379167
0.387500
0.337500
0.425000
0.325000
0.316667
0.379167
0.345833
0.325000
0.333333
0.358333
0.362500
0.362500
0.391667
0.366667
0.387500
0.345833
0.337500
0.308333
0.325000
0.354167
0.341667
0.345833
0.345833
0.350000
0.354167
0.329167
0.320833
0.333333
0.350000
0.329167
0.320833
0.387500
0.383333
0.395833
0.525000
0.408333
0.333333
0.416667
0.420833
0.379167
0.345833
0.366667
0.341667
0.341667
0.354167
0.325000
0.316667
0.312500
0.329167
0.350000
0.341667
0.350000
0.345833
0.345833
0.341667
0.362500
0.366667
0.437500
0.466667
0.441667
0.479167
0.391667
0.408333
0.550000
0.662500
0.329167
0.329167
0.337500
0.345833
0.358333
0.345833
0.341667
0.345833
0.345833
0.337500
0.337500
0.337500
0.320833
0.337500
0.387500
0.366667
0.370833
0.416667
0.366667
0.341667
0.333333
0.333333
0.329167
0.337500
0.354167
0.337500
0.379167
0.370833
0.445833
0.350000
0.341667
0.337500
0.325000
0.325000
0.379167
0.350000
0.412500
0.558333
0.441667
0.337500
0.325000
0.337500
0.387500
0.354167
0.366667
0.337500
0.333333
0.345833
0.333333
0.350000
0.341667
0.354167
0.358333
0.354167
0.366667
0.375000
0.341667
0.350000
0.337500
0.316667
0.366667
0.441667
0.358333
0.425000
0.441667
0.383333
0.408333
0.379167
0.333333
0.308333
0.329167
0.337500
0.337500
0.354167
0.345833
0.383333
0.370833
0.354167
0.320833
0.333333
0.316667
0.329167
0.354167
0.341667
0.341667
0.333333
0.345833
0.341667
0.404167
0.375000
0.329167
0.312500
0.341667
0.345833
0.337500
0.316667
0.337500
0.354167
0.341667
0.416667
0.383333
0.337500
0.404167
0.383333
0.337500
0.400000
0.387500
0.337500
0.308333
0.333333
0.358333
0.345833
0.337500
0.329167
0.325000
0.337500
0.333333
0.337500
0.387500
0.375000
0.362500
0.325000
0.341667
0.345833
0.337500
0.325000
0.341667
0.345833
0.341667
0.350000
0.345833
0.345833
0.337500
0.350000
0.370833
0.366667
0.391667
0.345833
0.312500
0.329167
0.341667
0.337500
0.387500
0.370833
0.354167
0.362500
0.341667
0.341667
0.341667
0.350000
0.362500
0.362500
0.325000
0.325000
0.379167
0.333333
0.325000
0.341667
0.341667
0.341667
0.370833
0.350000
0.395833
0.375000
0.337500
0.337500
0.333333
0.375000
0.366667
0.416667
0.491667
0.358333
0.350000
0.325000
0.383333
0.358333
0.366667
0.320833
0.333333
0.341667
0.337500
0.345833
0.341667
0.329167
0.329167
0.354167
0.341667
0.337500
0.333333
0.320833
0.341667
0.358333
0.337500
0.362500
0.370833
0.337500
0.354167
0.366667
0.533333
0.366667
0.391667
0.400000
0.475000
0.362500
0.358333
0.366667
0.333333
0.337500
0.337500
0.312500
0.325000
0.337500
0.337500
0.333333
0.337500
0.358333
0.341667
0.320833
0.337500
0.358333
0.341667
0.345833
0.366667
0.333333
0.316667
0.333333
0.354167
0.354167
0.350000
0.333333
0.312500
0.329167
0.341667
0.333333
0.345833
0.345833
0.358333
0.345833
0.383333
0.370833
0.337500
0.337500
0.341667
0.354167
0.354167
0.329167
0.316667
0.329167
0.337500
0.404167
0.379167
0.358333
0.345833
0.316667
0.358333
0.341667
0.345833
0.345833
0.329167
0.345833
0.350000
0.370833
0.370833
0.341667
0.329167
0.329167
0.337500
0.320833
0.341667
0.350000
0.333333
0.333333
0.354167
0.345833
0.312500
0.341667
0.366667
0.366667
0.337500
0.308333
0.358333
0.441667
0.375000
0.533333
0.345833
0.300000
0.312500
0.316667
0.325000
0.337500
0.362500
0.325000
0.325000
0.329167
0.341667
0.354167
0.354167
0.370833
0.333333
0.395833
0.329167
0.329167
0.341667
0.333333
0.345833
0.383333
0.358333
0.320833
0.329167
0.329167
0.566667
0.366667
0.354167
0.350000
0.412500
0.425000
0.379167
0.491667
0.641667
0.325000
0.404167
0.345833
0.325000
0.304167
0.291667
0.320833
0.333333
0.329167
0.387500
0.341667
0.287500
0.400000
0.383333
0.412500
0.366667
0.362500
0.312500
0.308333
0.329167
0.329167
0.316667
0.329167
0.362500
0.466667
0.429167
0.345833
0.300000
0.300000
0.495833
0.366667
0.320833
0.329167
0.525000
0.350000
0.320833
0.316667
0.329167
0.350000
0.408333
0.387500
0.316667
0.312500
0.341667
0.350000
0.358333
0.345833
0.341667
0.337500
0.375000
0.316667
0.304167
0.325000
0.362500
0.370833
0.320833
0.362500
0.337500
0.308333
0.333333
0.366667
0.583333
0.366667
0.358333
0.504167
0.441667
0.358333
0.358333
0.350000
0.625000
0.366667
0.320833
0.354167
0.320833
0.325000
0.333333
0.320833
0.333333
0.320833
0.337500
0.341667
0.329167
0.308333
0.375000
0.400000
0.354167
0.354167
0.354167
0.312500
0.341667
0.375000
0.504167
0.358333
0.416667
0.500000
0.387500
0.337500
0.320833
0.379167
0.354167
0.366667
0.554167
0.370833
0.345833
0.308333
0.304167
0.320833
0.325000
0.325000
0.341667
0.329167
0.545833
0.362500
0.308333
0.291667
0.341667
0.325000
0.320833
0.400000
0.362500
0.354167
0.354167
0.320833
0.279167
0.304167
0.333333
0.362500
0.358333
0.308333
0.295833
0.408333
0.366667
0.454167
0.375000
0.458333
0.350000
0.341667
0.358333
0.329167
0.341667
0.375000
0.366667
0.316667
0.308333
0.370833
0.350000
0.462500
0.345833
0.370833
0.354167
0.329167
0.325000
0.341667
0.408333
0.395833
0.345833
0.329167
0.333333
0.337500
0.345833
0.341667
0.325000
0.300000
0.337500
0.337500
0.329167
0.354167
0.404167
0.466667
0.454167
0.358333
0.404167
0.429167
0.362500
0.329167
0.341667
0.354167
0.600000
0.350000
0.320833
0.341667
0.329167
0.325000
0.312500
0.329167
0.341667
0.345833
0.341667
0.345833
0.341667
0.366667
0.370833
0.345833
0.366667
0.358333
0.333333
0.300000
0.320833
0.350000
0.329167
0.325000
0.379167
0.341667
0.325000
0.316667
0.333333
0.320833
0.312500
0.333333
0.341667
0.354167
0.320833
0.341667
0.358333
0.404167
0.400000
0.366667
0.337500
0.333333
0.320833
0.312500
0.308333
0.358333
0.341667
0.325000
0.325000
0.320833
0.345833
0.345833
0.312500
0.362500
0.383333
0.345833
0.354167
0.325000
0.337500
0.345833
0.329167
0.416667
0.354167
0.312500
0.333333
0.341667
0.320833
0.316667
0.333333
0.362500
0.404167
0.379167
0.350000
0.362500
0.341667
0.366667
0.387500
0.375000
0.529167
0.345833
0.304167
0.329167
0.354167
0.433333
0.416667
0.358333
0.487500
0.379167
0.325000
0.329167
0.329167
0.337500
0.320833
0.308333
0.375000
0.354167
0.354167
0.320833
0.308333
0.304167
0.325000
0.312500
0.329167
0.333333
0.362500
0.345833
0.345833
0.354167
0.337500
0.341667
0.350000
0.362500
0.325000
0.308333
0.400000
0.362500
0.500000
0.670833
0.358333
0.329167
0.341667
0.337500
0.341667
0.345833
0.341667
0.320833
0.316667
0.308333
0.312500
0.316667
0.329167
0.320833
0.308333
0.354167
0.370833
0.354167
0.333333
0.370833
0.370833
0.350000
0.320833
0.300000
0.391667
0.400000
0.341667
0.325000
0.379167
0.341667
0.333333
0.337500
0.320833
0.312500
0.316667
0.383333
0.341667
0.325000
0.320833
0.308333
0.312500
0.325000
0.337500
0.312500
0.320833
0.320833
0.329167
0.325000
0.312500
0.325000
0.333333
0.341667
0.358333
0.341667
0.325000
0.404167
0.354167
0.341667
0.337500
0.337500
0.350000
0.337500
0.329167
0.312500
0.337500
0.337500
0.341667
0.358333
0.350000
0.420833
0.400000
0.387500
0.337500
0.383333
0.450000
0.370833
0.333333
0.337500
0.387500
0.337500
0.295833
0.320833
0.337500
0.312500
0.329167
0.329167
0.320833
0.325000
0.350000
0.329167
0.329167
0.350000
0.333333
0.341667
0.383333
0.337500
0.316667
0.312500
0.350000
0.320833
0.333333
0.379167
0.366667
0.425000
0.416667
0.420833
0.358333
0.320833
0.312500
0.341667
0.404167
0.604167
0.375000
0.329167
0.508333
0.362500
0.329167
0.312500
0.375000
0.375000
0.325000
0.308333
0.333333
0.300000
0.295833
0.329167
0.337500
0.366667
0.383333
0.366667
1.937500
1.387500
1.108333
0.941667
1.291667
0.908333
1.016667
0.975000
0.954167
0.895833
0.733333
0.937500
1.250000
0.975000
0.920833
0.883333
0.950000
0.766667
1.195833
1.000000
0.979167
0.895833
0.883333
0.887500
0.837500
0.850000
0.883333
0.754167
0.766667
0.766667
0.762500
0.858333
1.316667
0.954167
0.975000
0.933333
0.908333
0.920833
0.908333
0.895833
0.837500
0.883333
0.820833
0.879167
0.750000
0.762500
0.758333
0.754167
0.758333
0.745833
0.762500
0.758333
0.754167
0.758333
0.754167
0.758333
0.758333
0.758333
0.758333
0.762500
0.762500
0.758333
0.766667
0.441667
0.533333
0.737500
0.654167
0.508333
0.383333
0.570833
0.416667
0.354167
0.316667
0.245833
0.429167
1.300000
0.445833
0.325000
0.333333
0.454167
0.366667
0.295833
0.304167
0.312500
0.316667
0.333333
0.366667
0.325000
0.304167
0.345833
0.325000
0.304167
0.304167
0.325000
0.329167
0.333333
0.337500
0.333333
0.325000
0.325000
0.325000
0.320833
0.345833
0.370833
0.345833
0.325000
0.316667
0.316667
0.308333
0.316667
0.350000
0.358333
0.370833
0.341667
0.329167
0.366667
0.341667
0.312500
0.304167
0.312500
0.316667
0.333333
0.333333
0.337500
0.366667
0.370833
0.329167
0.320833
0.312500
0.316667
0.337500
0.354167
0.333333
0.404167
0.554167
0.637500
0.337500
0.337500
0.333333
0.325000
0.329167
0.337500
0.341667
0.337500
0.312500
0.312500
0.337500
0.375000
0.345833
0.320833
0.337500
0.366667
0.420833
0.533333
0.375000
0.329167
0.337500
0.358333
0.345833
0.375000
0.454167
0.370833
0.291667
0.320833
0.325000
0.283333
0.329167
0.320833
0.312500
0.333333
0.362500
0.383333
0.383333
0.350000
0.337500
0.325000
0.333333
0.370833
0.333333
0.345833
0.350000
0.329167
0.308333
0.304167
0.333333
0.325000
0.308333
0.312500
0.333333
0.370833
0.379167
0.333333
0.354167
0.362500
0.345833
0.350000
0.333333
0.345833
0.454167
0.366667
0.341667
0.341667
0.337500
0.545833
0.350000
0.337500
0.291667
0.312500
0.350000
0.325000
0.320833
0.333333
0.312500
0.362500
0.345833
0.295833
0.320833
0.362500
0.325000
0.337500
0.316667
0.329167
0.341667
0.333333
0.337500
0.337500
0.362500
0.329167
0.316667
0.341667
0.370833
0.366667
0.337500
0.337500
0.333333
0.341667
0.337500
0.341667
0.337500
0.379167
0.350000
0.345833
0.320833
0.329167
0.354167
0.337500
0.362500
0.370833
0.337500
0.337500
0.337500
0.325000
0.329167
0.333333
0.329167
0.312500
0.337500
0.350000
0.337500
0.345833
0.337500
0.383333
0.379167
0.345833
0.416667
0.366667
0.329167
0.325000
0.320833
0.337500
0.337500
0.316667
0.325000
0.345833
0.354167
0.387500
0.575000
0.379167
0.350000
0.320833
0.337500
0.337500
0.329167
0.375000
0.362500
0.341667
0.337500
0.333333
0.345833
0.337500
0.362500
0.354167
0.366667
0.345833
0.312500
0.308333
0.333333
0.341667
0.329167
0.308333
0.329167
0.358333
0.404167
0.333333
0.329167
0.333333
0.329167
0.329167
0.370833
0.341667
0.304167
0.308333
0.337500
0.333333
0.341667
0.345833
0.379167
0.383333
0.337500
0.337500
0.337500
0.358333
0.491667
0.358333
0.325000
0.320833
0.320833
0.337500
0.383333
0.416667
0.325000
0.308333
0.316667
0.325000
0.341667
0.337500
0.404167
0.362500
0.320833
0.312500
0.333333
0.325000
0.329167
0.325000
0.333333
0.341667
0.333333
0.308333
0.329167
0.333333
0.329167
0.337500
0.362500
0.341667
0.287500
0.308333
0.345833
0.337500
0.329167
0.341667
0.358333
0.325000
0.337500
0.358333
0.354167
0.354167
0.329167
0.329167
0.325000
0.379167
0.387500
0.362500
0.333333
0.329167
0.345833
0.358333
0.320833
0.287500
0.316667
0.312500
0.312500
0.345833
0.358333
0.333333
0.358333
0.333333
0.320833
0.325000
0.383333
0.404167
0.337500
0.333333
0.337500
0.325000
0.304167
0.316667
0.350000
0.379167
0.366667
0.350000
0.316667
0.320833
0.312500
0.358333
0.412500
0.362500
0.462500
0.341667
0.312500
0.320833
0.329167
0.320833
0.325000
0.325000
0.325000
0.329167
0.325000
0.329167
0.329167
0.325000
0.304167
0.320833
0.387500
0.350000
0.333333
0.325000
0.308333
0.341667
0.337500
0.362500
0.362500
0.325000
0.337500
0.391667
0.487500
0.675000
0.291667
0.304167
0.337500
0.337500
0.312500
0.333333
0.358333
0.220833
0.458333
0.337500
0.220833
0.425000
0.316667
0.220833
0.412500
0.212500
0.420833
0.341667
0.325000
0.350000
0.370833
0.337500
0.345833
0.329167
0.312500
0.325000
0.370833
0.375000
0.341667
0.341667
0.333333
0.366667
0.354167
0.341667
0.412500
0.370833
0.329167
0.345833
0.358333
0.395833
0.566667
0.375000
0.337500
0.358333
0.362500
0.329167
0.333333
0.333333
0.341667
0.350000
0.325000
0.320833
0.345833
0.341667
0.333333
0.375000
0.358333
0.333333
0.370833
0.354167
0.333333
0.329167
0.329167
0.300000
0.329167
0.354167
0.350000
0.350000
0.345833
0.329167
0.362500
0.358333
0.329167
0.337500
0.333333
0.379167
0.366667
0.329167
0.329167
0.316667
0.337500
0.366667
0.325000
0.370833
0.366667
0.329167
0.300000
0.308333
0.350000
0.341667
0.345833
0.337500
0.383333
0.408333
0.337500
0.333333
0.329167
0.329167
0.333333
0.325000
0.308333
0.325000
0.341667
0.320833
0.366667
0.354167
0.341667
0.345833
0.333333
0.379167
0.375000
0.345833
0.333333
0.375000
0.320833
0.320833
0.358333
0.358333
0.345833
0.325000
0.370833
0.400000
0.370833
0.308333
0.333333
0.337500
0.345833
0.354167
0.370833
0.345833
0.325000
0.304167
0.308333
0.383333
0.345833
0.333333
0.350000
0.345833
0.337500
0.350000
0.329167
0.395833
0.358333
0.379167
0.358333
0.320833
0.316667
0.316667
0.320833
0.325000
0.312500
0.337500
0.383333
0.370833
0.345833
0.308333
0.354167
0.520833
0.250000
0.325000
0.591667
0.308333
0.308333
0.333333
0.320833
0.412500
0.341667
0.329167
0.350000
0.333333
0.387500
0.412500
0.354167
0.329167
0.329167
0.345833
0.320833
0.383333
0.345833
0.358333
0.433333
0.637500
0.312500
0.316667
0.341667
0.333333
0.345833
0.341667
0.341667
0.362500
0.341667
0.354167
0.341667
0.320833
0.333333
0.366667
0.387500
0.512500
0.366667
0.345833
0.312500
0.316667
0.366667
0.358333
0.337500
0.362500
0.333333
0.366667
0.354167
0.325000
0.362500
0.408333
0.341667
0.325000
0.566667
0.383333
0.379167
0.329167
0.320833
0.366667
0.420833
0.358333
0.437500
0.345833
0.341667
0.354167
0.325000
0.362500
0.366667
0.395833
0.395833
0.337500
0.350000
0.391667
0.337500
0.337500
0.441667
0.354167
0.479167
0.354167
0.333333
0.333333
0.379167
0.354167
0.329167
0.350000
0.345833
0.354167
0.387500
0.350000
0.329167
0.337500
0.325000
0.408333
0.370833
0.345833
0.337500
0.329167
0.325000
0.337500
0.362500
0.387500
0.387500
0.366667
0.337500
0.325000
0.329167
0.341667
0.333333
0.362500
0.350000
0.337500
0.337500
0.325000
0.345833
0.370833
0.333333
0.370833
0.341667
0.333333
0.304167
0.350000
0.370833
0.333333
0.333333
0.379167
0.337500
0.320833
0.391667
0.475000
0.512500
0.375000
0.345833
0.345833
0.312500
0.325000
0.416667
0.345833
0.337500
0.337500
0.345833
0.475000
0.520833
0.350000
0.370833
0.462500
0.695833
0.362500
0.341667
0.379167
0.350000
0.333333
0.333333
0.320833
0.312500
0.320833
0.325000
0.325000
0.325000
0.341667
0.337500
0.341667
0.370833
0.366667
0.316667
0.300000
0.308333
0.279167
0.320833
0.491667
0.370833
0.341667
0.320833
