0.566667
0.562500
0.558333
0.566667
0.562500
0.562500
0.566667
0.566667
0.562500
0.566667
0.570833
0.562500
0.562500
0.320833
0.812500
0.558333
0.570833
0.562500
0.562500
0.200000
0.366667
0.562500
0.562500
0.566667
0.562500
0.562500
0.566667
0.562500
0.562500
0.566667
0.562500
0.562500
0.566667
0.570833
0.566667
0.354167
0.212500
0.391667
0.741667
0.570833
0.566667
0.562500
0.579167
0.570833
0.566667
0.212500
0.370833
0.570833
0.570833
0.187500
0.387500
0.575000
0.566667
0.575000
0.570833
0.570833
0.575000
0.575000
0.579167
0.575000
0.579167
0.579167
0.595833
0.587500
0.287500
0.312500
0.600000
0.595833
0.604167
0.604167
0.608333
0.616667
0.612500
0.612500
0.620833
0.608333
0.616667
0.604167
0.612500
0.604167
0.604167
0.616667
0.612500
0.608333
0.629167
0.633333
0.629167
0.629167
0.645833
0.637500
0.637500
0.637500
0.629167
0.637500
0.633333
0.633333
0.641667
0.641667
0.629167
0.191667
0.450000
0.633333
0.620833
0.625000
0.616667
0.608333
0.612500
0.604167
0.595833
0.583333
0.616667
0.595833
0.587500
0.595833
0.591667
0.245833
0.345833
0.600000
0.587500
0.587500
0.275000
0.320833
0.587500
0.583333
0.195833
0.391667
0.583333
0.575000
0.308333
0.279167
0.575000
0.575000
0.575000
0.575000
0.570833
0.566667
0.570833
0.575000
0.566667
0.562500
0.270833
0.304167
0.562500
0.562500
0.570833
0.566667
0.562500
0.570833
0.570833
0.566667
0.570833
0.570833
0.566667
0.554167
0.595833
0.570833
0.570833
0.162500
0.416667
0.575000
0.570833
0.583333
0.579167
0.575000
0.579167
0.575000
0.575000
0.579167
0.579167
0.575000
0.570833
0.583333
0.570833
0.566667
0.579167
0.570833
0.566667
0.575000
0.566667
0.566667
0.570833
0.566667
0.558333
0.566667
0.570833
0.562500
0.558333
0.570833
0.562500
0.558333
0.562500
0.558333
0.558333
0.558333
0.566667
0.558333
0.558333
0.566667
0.558333
0.554167
0.562500
0.325000
0.233333
0.550000
0.758333
0.366667
0.554167
0.554167
0.566667
0.554167
0.554167
0.566667
0.554167
0.554167
0.562500
0.554167
0.554167
0.558333
0.558333
0.550000
0.558333
0.562500
0.554167
0.554167
0.562500
0.554167
0.554167
0.558333
0.554167
0.550000
0.558333
0.554167
0.550000
0.558333
0.558333
0.554167
0.733333
0.333333
0.595833
0.550000
0.562500
0.554167
0.554167
0.558333
0.295833
0.270833
0.554167
0.554167
0.562500
0.558333
0.550000
0.562500
0.558333
0.554167
0.554167
0.554167
0.558333
0.558333
0.558333
0.554167
0.566667
0.554167
0.554167
0.570833
0.208333
0.345833
0.554167
0.566667
0.558333
0.558333
0.570833
0.558333
0.558333
0.566667
0.570833
0.562500
0.562500
0.570833
0.250000
0.316667
0.562500
0.566667
0.579167
0.562500
0.562500
0.570833
0.566667
0.562500
0.566667
0.570833
0.562500
0.562500
0.566667
0.562500
0.558333
0.566667
0.566667
0.562500
0.558333
0.570833
0.562500
0.558333
0.562500
0.566667
0.558333
0.558333
0.562500
0.558333
0.558333
0.558333
0.566667
0.337500
0.220833
0.554167
0.554167
0.562500
0.554167
0.562500
0.554167
0.558333
0.566667
0.558333
0.558333
0.566667
0.554167
0.558333
0.562500
0.554167
0.558333
0.558333
0.566667
0.558333
0.558333
0.562500
0.558333
0.554167
0.566667
0.562500
0.554167
0.554167
0.558333
0.566667
0.558333
0.554167
0.558333
0.566667
0.558333
0.554167
0.558333
0.562500
0.554167
0.558333
0.562500
0.558333
0.554167
0.558333
0.566667
0.558333
0.554167
0.562500
0.554167
0.554167
0.558333
0.566667
0.558333
0.550000
0.562500
0.554167
0.554167
0.558333
0.558333
0.554167
0.558333
0.562500
0.558333
0.550000
0.562500
0.558333
0.558333
0.554167
0.558333
0.554167
0.554167
0.620833
0.450000
0.604167
0.550000
0.558333
0.554167
0.550000
0.558333
0.558333
0.554167
0.554167
0.558333
0.554167
0.550000
0.562500
0.554167
0.554167
0.558333
0.554167
0.550000
0.554167
0.566667
0.554167
0.554167
0.558333
0.558333
0.554167
0.558333
0.562500
0.558333
0.554167
0.566667
0.554167
0.558333
0.558333
0.558333
0.554167
0.558333
0.566667
0.554167
0.554167
0.558333
0.558333
0.554167
0.558333
0.558333
0.554167
0.554167
0.566667
0.554167
0.554167
0.562500
0.554167
0.554167
0.566667
0.558333
0.554167
0.566667
0.558333
0.558333
0.566667
0.558333
0.558333
0.558333
0.558333
0.558333
0.558333
0.554167
0.558333
0.562500
0.554167
0.558333
0.562500
0.554167
0.558333
0.558333
0.562500
0.558333
0.558333
0.566667
0.558333
0.558333
0.562500
0.558333
0.558333
0.566667
0.562500
0.554167
0.300000
0.258333
0.558333
0.562500
0.558333
0.558333
0.562500
0.558333
0.558333
0.562500
0.562500
0.554167
0.558333
0.566667
0.554167
0.554167
0.562500
0.558333
0.554167
0.683333
0.437500
0.554167
0.550000
0.558333
0.554167
0.550000
0.558333
0.487500
0.616667
0.554167
0.562500
0.550000
0.554167
0.562500
0.550000
0.550000
0.558333
0.554167
0.550000
0.554167
0.562500
0.554167
0.554167
0.558333
0.554167
0.550000
0.558333
0.554167
0.554167
0.558333
0.566667
0.558333
0.550000
0.562500
0.558333
0.558333
0.558333
0.566667
0.558333
0.558333
0.562500
0.554167
0.558333
0.558333
0.566667
0.558333
0.558333
0.562500
0.562500
0.558333
0.558333
0.566667
0.562500
0.558333
0.562500
0.570833
0.562500
0.558333
0.562500
0.570833
0.562500
0.562500
0.566667
0.566667
0.562500
0.566667
0.570833
0.420833
0.700000
0.570833
0.558333
0.558333
0.570833
0.558333
0.558333
0.562500
0.566667
0.558333
0.558333
0.562500
0.558333
0.554167
0.562500
0.558333
0.554167
0.554167
0.566667
0.558333
0.554167
0.554167
0.562500
0.554167
0.554167
0.558333
0.558333
0.554167
0.550000
0.558333
0.558333
0.554167
0.554167
0.558333
0.562500
0.558333
0.554167
0.558333
0.566667
0.554167
0.554167
0.558333
0.566667
0.558333
0.554167
0.562500
0.558333
0.554167
0.558333
0.566667
0.558333
0.558333
0.558333
0.566667
0.558333
0.558333
0.558333
0.566667
0.554167
0.554167
0.562500
0.562500
0.554167
0.554167
0.562500
0.554167
0.554167
0.558333
0.558333
0.558333
0.554167
0.562500
0.558333
0.554167
0.562500
0.566667
0.558333
0.554167
0.558333
0.566667
0.558333
0.558333
0.562500
0.562500
0.570833
0.566667
0.562500
0.566667
0.575000
0.562500
0.566667
0.566667
0.579167
0.566667
0.566667
0.570833
0.566667
0.566667
0.566667
0.579167
0.566667
0.558333
0.575000
0.566667
0.562500
0.566667
0.625000
0.500000
0.562500
0.570833
0.558333
0.558333
0.570833
0.558333
0.554167
0.283333
0.283333
0.558333
0.554167
0.566667
0.325000
0.229167
0.554167
0.566667
0.554167
0.554167
0.562500
0.554167
0.554167
0.562500
0.554167
0.554167
0.558333
0.550000
0.554167
0.558333
0.550000
0.554167
0.554167
0.550000
0.554167
0.554167
0.550000
0.554167
0.554167
0.550000
0.558333
0.554167
0.550000
0.562500
0.554167
0.558333
0.562500
0.554167
0.558333
0.558333
0.566667
0.558333
0.558333
0.570833
0.558333
0.558333
0.566667
0.562500
0.558333
0.562500
0.562500
0.558333
0.562500
0.566667
0.562500
0.558333
0.570833
0.562500
0.562500
0.741667
0.383333
0.558333
0.566667
0.566667
0.558333
0.562500
0.570833
0.562500
0.566667
0.570833
0.562500
0.562500
0.575000
0.562500
0.562500
0.566667
0.562500
0.558333
0.570833
0.558333
0.562500
0.562500
0.566667
0.558333
0.562500
0.562500
0.558333
0.562500
0.566667
0.558333
0.558333
0.570833
0.558333
0.558333
0.566667
0.558333
0.558333
0.562500
0.566667
0.558333
0.558333
0.562500
0.562500
0.558333
0.558333
0.566667
0.558333
0.558333
0.562500
0.566667
0.558333
0.554167
0.562500
0.566667
0.558333
0.554167
0.566667
0.562500
0.558333
0.562500
0.566667
0.558333
0.558333
0.570833
0.558333
0.562500
0.566667
0.562500
0.558333
0.570833
0.558333
0.558333
0.570833
0.558333
0.558333
0.566667
0.558333
0.558333
0.558333
0.570833
0.558333
0.554167
0.566667
0.558333
0.554167
0.562500
0.554167
0.558333
0.558333
0.562500
0.554167
0.554167
0.566667
0.554167
0.554167
0.558333
0.562500
0.554167
0.554167
0.558333
0.562500
0.554167
0.558333
0.562500
0.554167
0.562500
0.562500
0.558333
0.562500
0.562500
0.558333
0.558333
0.566667
0.562500
0.558333
0.566667
0.562500
0.562500
0.562500
0.575000
0.562500
0.558333
0.570833
0.562500
0.562500
0.566667
0.566667
0.562500
0.562500
0.208333
0.366667
0.562500
0.562500
0.566667
0.562500
0.558333
0.570833
0.558333
0.558333
0.570833
0.554167
0.558333
0.562500
0.558333
0.554167
0.562500
0.562500
0.554167
0.554167
0.562500
0.558333
0.550000
0.500000
0.612500
0.550000
0.554167
0.558333
0.554167
0.554167
0.562500
0.550000
0.554167
0.562500
0.554167
0.550000
0.562500
0.554167
0.550000
0.562500
0.554167
0.550000
0.558333
0.554167
0.550000
0.554167
0.554167
0.554167
0.550000
0.558333
0.558333
0.550000
0.558333
0.554167
0.545833
0.562500
0.554167
0.550000
0.558333
0.554167
0.550000
0.558333
0.554167
0.550000
0.558333
0.554167
0.550000
0.554167
0.562500
0.554167
0.554167
0.562500
0.554167
0.550000
0.566667
0.554167
0.554167
0.562500
0.554167
0.554167
0.562500
0.558333
0.554167
0.562500
0.562500
0.554167
0.554167
0.566667
0.554167
0.554167
0.562500
0.558333
0.554167
0.558333
0.566667
0.558333
0.558333
0.562500
0.558333
0.558333
0.562500
0.566667
0.562500
0.558333
0.566667
0.562500
0.558333
0.558333
0.287500
0.366667
0.470833
0.562500
0.558333
0.570833
0.558333
0.558333
0.562500
0.570833
0.558333
0.558333
0.537500
0.579167
0.558333
0.558333
0.562500
0.554167
0.554167
0.566667
0.558333
0.550000
0.562500
0.554167
0.554167
0.558333
0.554167
0.554167
0.554167
0.562500
0.550000
0.550000
0.558333
0.550000
0.550000
0.558333
0.554167
0.554167
0.554167
0.558333
0.550000
0.550000
0.558333
0.550000
0.550000
0.554167
0.558333
0.550000
0.550000
0.554167
0.554167
0.545833
0.554167
0.562500
0.550000
0.550000
0.554167
0.554167
0.550000
0.554167
0.558333
0.550000
0.554167
0.554167
0.566667
0.550000
0.554167
0.558333
0.550000
0.554167
0.554167
0.562500
0.558333
0.550000
0.558333
0.558333
0.554167
0.550000
0.562500
0.554167
0.554167
0.554167
0.562500
0.554167
0.554167
0.558333
0.558333
0.558333
0.558333
0.550000
0.550000
0.558333
0.554167
0.550000
0.558333
0.554167
0.550000
0.558333
0.554167
0.550000
0.562500
0.554167
0.370833
0.175000
0.641667
0.258333
0.216667
0.550000
0.554167
0.562500
0.550000
0.550000
0.562500
0.550000
0.550000
0.558333
0.550000
0.545833
0.558333
0.550000
0.545833
0.554167
0.550000
0.545833
0.554167
0.554167
0.550000
0.550000
0.558333
0.550000
0.545833
0.558333
0.550000
0.554167
0.554167
0.550000
0.545833
0.554167
0.550000
0.550000
0.550000
0.558333
0.550000
0.558333
0.562500
0.550000
0.562500
0.558333
0.554167
0.566667
0.558333
0.554167
0.566667
0.558333
0.562500
0.566667
0.558333
0.562500
0.570833
0.558333
0.558333
