0.691667
0.708333
1.220833
0.741667
0.645833
0.641667
0.858333
1.108333
0.754167
0.662500
0.625000
0.679167
0.575000
0.391667
0.391667
0.362500
0.333333
0.316667
0.316667
0.350000
0.450000
1.275000
0.720833
0.775000
0.750000
1.287500
0.754167
0.658333
0.841667
0.695833
0.641667
0.620833
1.616667
0.804167
0.691667
0.637500
0.683333
0.670833
0.666667
0.683333
0.658333
0.687500
0.404167
1.270833
0.875000
0.908333
0.887500
0.870833
0.887500
0.866667
0.712500
1.504167
0.754167
0.441667
0.362500
0.337500
0.325000
0.304167
0.312500
0.329167
0.320833
0.312500
0.337500
0.333333
0.341667
0.329167
0.341667
0.345833
0.395833
0.354167
0.329167
0.370833
0.341667
0.316667
0.329167
0.333333
0.316667
0.370833
0.320833
0.354167
0.437500
0.350000
0.316667
0.350000
0.350000
0.466667
0.516667
0.475000
0.341667
1.225000
0.445833
1.475000
0.766667
0.708333
0.391667
0.487500
0.383333
0.329167
0.312500
0.333333
0.366667
0.345833
0.350000
0.337500
0.329167
0.329167
0.333333
0.358333
0.345833
0.350000
0.345833
0.370833
0.362500
0.345833
0.345833
0.333333
0.366667
0.337500
0.341667
0.345833
0.316667
0.320833
0.433333
0.400000
0.358333
0.308333
0.612500
0.537500
1.533333
0.445833
1.379167
0.912500
0.900000
0.879167
0.866667
0.858333
0.862500
0.833333
0.841667
0.666667
1.270833
0.904167
0.891667
0.887500
0.879167
0.870833
0.879167
0.870833
0.866667
0.866667
0.866667
0.862500
0.866667
0.858333
0.862500
0.862500
0.862500
0.858333
0.858333
0.862500
0.462500
0.537500
0.587500
0.595833
0.604167
0.658333
0.412500
0.370833
0.337500
0.312500
0.304167
0.295833
0.341667
0.345833
0.350000
0.320833
0.320833
0.325000
0.308333
0.320833
0.333333
0.325000
0.320833
0.329167
0.337500
0.320833
0.308333
0.400000
0.533333
0.466667
0.358333
0.333333
0.379167
0.404167
0.395833
0.375000
0.370833
0.337500
0.329167
0.379167
0.429167
0.583333
0.520833
0.445833
0.520833
1.145833
1.279167
0.750000
0.441667
0.354167
0.316667
0.341667
1.304167
0.733333
1.504167
0.800000
0.441667
0.354167
0.333333
0.395833
0.362500
0.354167
0.408333
0.408333
1.512500
0.758333
1.012500
0.766667
0.745833
0.412500
0.350000
0.325000
0.495833
0.370833
0.383333
1.187500
0.754167
0.741667
0.708333
0.587500
0.916667
1.466667
0.745833
0.666667
0.650000
1.712500
0.741667
0.550000
0.666667
0.550000
0.716667
0.679167
1.208333
0.887500
0.912500
0.895833
0.883333
0.883333
0.879167
0.870833
0.875000
0.870833
0.845833
0.833333
0.720833
0.591667
0.525000
0.604167
0.645833
0.608333
0.645833
0.404167
0.345833
0.316667
0.320833
0.325000
0.320833
0.308333
0.308333
0.337500
0.325000
0.312500
0.345833
0.333333
0.333333
0.345833
0.354167
0.362500
0.325000
0.308333
0.337500
0.383333
0.341667
0.337500
0.337500
0.341667
0.329167
0.325000
0.362500
0.358333
0.316667
0.383333
0.375000
0.508333
0.354167
0.362500
0.345833
0.320833
0.308333
0.320833
0.379167
0.375000
0.345833
0.325000
0.345833
0.412500
0.345833
0.379167
0.487500
0.400000
0.337500
0.433333
0.470833
0.333333
0.354167
0.454167
0.479167
0.416667
0.404167
0.325000
0.375000
0.383333
0.320833
0.308333
0.308333
0.316667
0.412500
0.325000
0.337500
0.358333
0.500000
0.420833
0.525000
0.395833
0.325000
0.300000
0.320833
0.450000
0.466667
0.437500
0.362500
0.354167
0.379167
0.366667
0.354167
0.345833
0.341667
0.350000
0.333333
0.350000
0.345833
0.391667
0.358333
0.325000
0.350000
0.325000
0.333333
0.325000
0.391667
0.450000
0.375000
0.420833
0.341667
0.383333
0.341667
0.312500
0.375000
0.345833
0.333333
0.341667
0.329167
0.325000
0.366667
0.325000
0.329167
0.341667
0.325000
0.337500
0.325000
0.350000
0.379167
0.345833
0.370833
0.362500
0.337500
0.341667
0.325000
0.341667
0.337500
0.370833
0.362500
0.333333
0.379167
0.329167
0.300000
0.370833
0.337500
0.354167
0.354167
0.337500
0.350000
0.325000
0.329167
0.533333
0.345833
0.337500
0.350000
0.320833
0.350000
0.341667
0.337500
0.345833
0.387500
0.358333
0.333333
0.337500
0.400000
0.516667
0.420833
0.508333
0.520833
0.366667
0.379167
0.333333
0.304167
0.329167
0.320833
0.341667
0.375000
0.412500
0.383333
0.329167
0.345833
0.308333
0.312500
0.304167
0.316667
0.341667
0.366667
0.454167
0.354167
0.433333
0.354167
0.383333
0.358333
0.316667
0.320833
0.320833
0.383333
0.362500
0.329167
0.333333
0.333333
0.329167
0.337500
0.333333
0.416667
0.400000
0.350000
0.325000
0.316667
0.404167
0.404167
0.345833
0.566667
0.437500
0.358333
0.329167
0.387500
0.387500
0.366667
0.341667
0.304167
0.312500
0.316667
0.345833
0.341667
0.550000
0.420833
0.350000
0.333333
0.316667
0.312500
0.333333
0.354167
0.341667
0.350000
0.345833
0.333333
0.387500
0.366667
0.329167
0.337500
0.325000
0.333333
0.329167
0.325000
0.354167
0.329167
0.379167
0.366667
0.345833
0.329167
0.358333
0.354167
0.333333
0.308333
0.345833
0.487500
0.387500
0.350000
0.341667
0.487500
0.350000
0.325000
0.345833
0.320833
0.320833
0.370833
0.345833
0.320833
0.329167
0.345833
0.354167
0.350000
0.350000
0.341667
0.500000
0.350000
0.316667
0.316667
0.308333
0.316667
0.341667
0.320833
0.362500
0.341667
0.329167
0.320833
0.337500
0.316667
0.337500
0.345833
0.341667
0.320833
0.312500
0.304167
0.437500
0.375000
0.329167
0.304167
0.387500
0.370833
0.337500
0.383333
0.333333
0.329167
0.416667
0.395833
0.341667
0.354167
0.333333
0.575000
0.375000
0.325000
0.325000
0.337500
0.379167
0.420833
0.437500
0.345833
0.316667
0.354167
0.341667
0.370833
0.358333
0.350000
0.350000
0.375000
0.470833
0.400000
0.479167
0.350000
0.325000
0.391667
0.387500
0.325000
0.350000
0.345833
0.341667
0.383333
0.337500
0.395833
0.350000
0.312500
0.312500
0.354167
0.354167
0.329167
0.341667
0.383333
0.329167
0.325000
0.329167
0.325000
0.358333
0.358333
0.470833
0.454167
0.395833
0.358333
0.329167
0.479167
0.354167
0.320833
0.337500
0.420833
0.341667
0.333333
0.325000
0.341667
0.337500
0.329167
0.329167
0.333333
0.375000
0.337500
0.329167
0.412500
0.316667
0.287500
0.329167
0.416667
0.333333
0.341667
0.345833
0.300000
0.287500
0.400000
0.379167
0.325000
0.329167
0.358333
0.441667
0.358333
0.383333
0.379167
0.362500
0.358333
0.341667
0.366667
0.329167
0.304167
0.345833
0.512500
0.341667
0.270833
0.400000
0.379167
0.375000
0.370833
0.404167
0.354167
0.341667
0.333333
0.337500
0.408333
0.341667
0.366667
0.341667
0.441667
0.375000
0.345833
0.470833
0.383333
0.375000
0.308333
0.358333
0.404167
0.337500
0.312500
0.316667
0.333333
0.316667
0.370833
0.354167
0.337500
0.616667
0.350000
0.308333
0.333333
0.333333
0.329167
0.370833
0.375000
0.341667
0.329167
0.329167
0.358333
0.379167
0.333333
0.325000
0.316667
0.337500
0.400000
0.345833
0.375000
0.362500
0.391667
0.350000
0.354167
0.445833
0.325000
0.308333
0.333333
0.329167
0.366667
0.358333
0.341667
0.337500
0.337500
0.375000
0.379167
0.345833
0.316667
0.325000
0.329167
0.345833
0.345833
0.341667
0.375000
0.341667
0.354167
0.358333
0.337500
0.420833
0.362500
0.362500
0.350000
0.400000
0.358333
0.337500
0.450000
0.383333
0.345833
0.445833
0.337500
0.329167
0.337500
0.362500
0.345833
0.362500
0.416667
0.375000
0.325000
0.337500
0.345833
0.320833
0.362500
0.325000
0.337500
0.458333
0.350000
0.325000
0.408333
0.362500
0.287500
0.287500
0.287500
0.295833
0.379167
0.333333
0.341667
0.350000
0.325000
0.395833
0.429167
0.383333
0.337500
0.308333
0.333333
0.341667
0.329167
0.304167
0.304167
0.341667
1.408333
1.404167
1.316667
0.925000
0.925000
0.883333
0.837500
0.841667
1.304167
0.908333
0.845833
0.754167
0.804167
1.279167
0.912500
0.862500
0.850000
0.837500
0.758333
0.745833
1.179167
0.770833
0.729167
1.237500
0.762500
0.733333
0.745833
1.266667
0.891667
0.875000
0.841667
0.841667
0.829167
0.750000
0.725000
0.712500
0.720833
1.225000
0.775000
0.775000
0.854167
0.945833
0.975000
0.925000
0.900000
0.904167
0.900000
0.887500
0.458333
0.516667
0.600000
0.750000
1.437500
0.754167
0.437500
0.366667
0.325000
0.329167
0.462500
0.366667
0.354167
1.262500
0.754167
0.729167
0.462500
0.483333
0.366667
0.295833
1.345833
0.758333
1.012500
0.804167
0.683333
0.612500
0.620833
0.595833
0.562500
0.608333
0.550000
0.370833
0.325000
1.820833
0.745833
0.691667
0.587500
0.641667
0.400000
0.341667
0.312500
0.325000
0.316667
0.333333
0.475000
1.291667
0.745833
0.779167
0.641667
0.583333
0.670833
0.733333
0.708333
0.729167
0.741667
0.666667
0.641667
0.650000
0.633333
0.608333
0.587500
0.641667
0.716667
0.695833
0.695833
0.633333
0.704167
0.487500
0.358333
0.304167
0.300000
0.354167
0.600000
0.370833
0.337500
0.450000
0.362500
0.337500
0.325000
0.508333
0.358333
0.329167
1.566667
0.770833
0.679167
0.700000
0.708333
0.400000
1.737500
0.779167
1.233333
0.766667
0.733333
1.425000
1.758333
0.816667
0.441667
0.408333
0.350000
0.308333
0.287500
0.300000
1.425000
0.737500
0.670833
0.725000
0.654167
0.758333
0.704167
0.633333
0.770833
0.787500
0.708333
0.633333
0.612500
0.587500
0.575000
0.375000
0.329167
0.354167
0.329167
0.412500
0.383333
0.325000
0.345833
0.350000
0.320833
0.308333
0.370833
0.341667
0.412500
0.416667
0.416667
0.350000
0.337500
0.333333
0.333333
0.341667
0.333333
0.316667
0.358333
0.370833
0.362500
0.395833
0.333333
0.408333
0.341667
0.362500
0.375000
0.575000
0.379167
0.358333
0.329167
0.354167
0.412500
0.504167
0.362500
0.391667
0.420833
0.354167
0.375000
0.487500
0.358333
0.362500
0.420833
0.350000
0.337500
0.366667
0.337500
0.375000
0.341667
0.333333
0.333333
0.354167
0.341667
0.337500
0.337500
0.329167
0.408333
0.362500
0.341667
0.400000
0.395833
0.362500
0.370833
0.354167
0.483333
0.337500
0.295833
0.316667
0.425000
0.337500
0.470833
0.345833
0.316667
0.316667
0.308333
0.320833
0.379167
0.350000
0.312500
0.329167
0.366667
0.370833
0.387500
0.337500
0.337500
0.504167
0.408333
0.333333
0.350000
0.475000
0.350000
0.295833
0.312500
0.383333
0.312500
0.383333
0.433333
0.358333
0.320833
0.337500
0.308333
0.441667
0.329167
0.279167
0.283333
0.370833
0.358333
0.333333
0.354167
0.487500
0.383333
0.462500
0.358333
0.362500
0.366667
0.458333
0.350000
0.400000
0.362500
0.341667
0.341667
0.320833
0.354167
0.354167
0.408333
0.391667
0.450000
0.366667
0.329167
0.337500
0.308333
0.287500
0.329167
0.579167
0.454167
0.433333
0.366667
0.416667
0.387500
0.329167
0.333333
0.408333
0.370833
0.433333
0.500000
0.400000
0.383333
0.341667
0.333333
0.341667
0.320833
0.366667
0.375000
0.587500
0.383333
0.345833
0.345833
0.358333
0.337500
0.350000
0.341667
0.370833
0.337500
0.383333
0.395833
0.395833
0.358333
0.341667
0.341667
0.362500
0.341667
0.395833
0.387500
0.337500
0.391667
0.366667
0.345833
0.412500
0.462500
0.408333
0.362500
0.354167
0.345833
0.329167
0.362500
0.350000
0.341667
0.358333
0.354167
0.366667
0.325000
0.337500
0.358333
0.341667
0.354167
0.358333
0.341667
0.333333
0.366667
0.354167
0.354167
0.383333
0.395833
0.383333
0.341667
0.337500
0.433333
0.454167
0.404167
0.387500
0.350000
0.341667
0.333333
0.358333
0.383333
0.325000
0.358333
0.375000
0.420833
0.420833
0.358333
0.304167
0.375000
0.375000
0.341667
0.329167
0.329167
0.366667
0.379167
0.404167
0.375000
0.345833
0.329167
0.350000
0.329167
0.375000
0.341667
0.366667
0.391667
0.329167
0.391667
0.366667
0.345833
0.375000
0.366667
0.354167
0.433333
0.375000
0.408333
0.525000
0.404167
0.312500
0.350000
0.316667
0.320833
0.345833
0.404167
0.358333
0.350000
0.416667
0.362500
0.329167
0.333333
0.329167
0.333333
0.325000
0.341667
0.379167
0.362500
0.375000
0.358333
0.408333
0.383333
0.341667
0.375000
0.375000
0.358333
0.395833
0.370833
0.337500
0.362500
0.379167
0.333333
0.316667
0.345833
0.420833
0.354167
0.329167
0.404167
0.450000
0.425000
0.354167
0.329167
0.358333
0.366667
0.329167
0.337500
0.341667
0.358333
0.341667
0.400000
0.383333
0.337500
0.391667
0.366667
0.341667
0.312500
0.337500
0.391667
0.379167
0.345833
0.379167
0.466667
0.366667
0.337500
0.358333
0.362500
0.379167
0.416667
0.350000
0.375000
0.370833
0.337500
0.412500
0.395833
0.354167
0.333333
0.366667
0.337500
0.350000
0.341667
0.350000
0.333333
0.391667
0.358333
0.429167
0.354167
0.337500
0.333333
0.350000
0.337500
0.391667
0.362500
0.400000
0.395833
0.341667
0.320833
0.383333
0.508333
0.454167
0.437500
0.370833
0.437500
0.395833
0.375000
0.345833
0.329167
0.408333
0.366667
0.329167
0.379167
0.375000
0.345833
0.416667
0.358333
0.341667
0.354167
0.341667
0.345833
0.375000
0.333333
0.329167
0.341667
0.337500
0.329167
0.329167
0.333333
0.362500
0.375000
0.350000
0.395833
0.366667
0.375000
0.395833
0.375000
0.433333
0.387500
0.608333
0.366667
0.320833
0.391667
0.366667
0.337500
0.345833
0.337500
0.379167
0.375000
0.358333
0.325000
0.337500
0.375000
0.337500
0.400000
0.416667
0.366667
0.337500
0.341667
