0.520833
0.520833
0.520833
0.520833
0.525000
0.520833
0.525000
0.520833
0.520833
0.525000
0.525000
0.529167
0.529167
0.525000
0.529167
0.533333
0.529167
0.529167
0.425000
0.629167
0.525000
0.570833
0.608333
0.379167
0.350000
0.545833
0.250000
0.429167
0.208333
0.487500
0.312500
0.512500
0.512500
0.512500
0.516667
0.504167
0.512500
0.508333
0.516667
0.504167
0.508333
0.508333
0.512500
0.508333
0.512500
0.508333
0.516667
0.516667
0.516667
0.520833
0.520833
0.520833
0.525000
0.520833
0.529167
1.037500
0.516667
0.516667
0.516667
1.033333
0.520833
0.520833
0.520833
0.525000
0.520833
0.520833
0.520833
0.516667
0.520833
0.512500
0.512500
0.512500
0.516667
0.516667
0.516667
0.520833
0.520833
0.520833
0.520833
0.529167
0.525000
0.520833
0.529167
0.525000
0.525000
0.529167
0.525000
0.529167
0.520833
0.529167
0.525000
0.529167
0.525000
0.529167
0.529167
0.525000
0.533333
0.529167
0.529167
0.533333
0.533333
0.537500
0.529167
0.533333
0.529167
0.529167
0.275000
0.387500
0.308333
0.604167
0.308333
0.216667
0.525000
0.525000
0.520833
0.516667
0.525000
0.520833
0.520833
0.520833
0.516667
0.520833
0.520833
0.520833
0.520833
0.516667
0.525000
0.525000
0.520833
0.525000
0.525000
0.525000
0.525000
0.533333
0.520833
0.533333
0.529167
0.533333
0.529167
0.533333
0.529167
0.529167
0.533333
0.529167
0.533333
0.525000
0.533333
0.304167
0.237500
0.525000
0.525000
0.525000
0.525000
0.533333
0.529167
0.520833
0.525000
0.525000
0.525000
0.520833
0.520833
0.520833
0.520833
0.520833
0.516667
0.520833
0.525000
0.525000
0.525000
0.533333
0.529167
0.529167
0.529167
0.529167
0.533333
0.529167
0.533333
0.533333
0.533333
0.529167
0.537500
0.533333
0.533333
0.537500
0.529167
0.429167
0.641667
0.537500
0.533333
0.537500
0.529167
0.537500
0.533333
0.533333
0.537500
0.533333
0.533333
0.537500
0.533333
0.541667
0.537500
0.537500
0.541667
0.541667
0.550000
0.545833
0.545833
0.545833
0.550000
0.541667
0.541667
0.541667
0.541667
0.545833
0.537500
0.541667
0.541667
0.545833
0.545833
0.545833
0.545833
0.545833
0.541667
0.550000
0.545833
0.545833
0.541667
0.541667
0.600000
0.470833
0.533333
0.529167
0.537500
0.358333
0.258333
0.429167
0.570833
0.500000
0.533333
0.529167
0.520833
0.533333
0.458333
0.470833
0.216667
0.416667
0.520833
0.516667
0.516667
0.520833
0.512500
0.520833
0.520833
0.520833
0.516667
0.520833
0.520833
0.520833
0.516667
0.520833
0.516667
0.516667
0.429167
0.604167
0.520833
0.520833
0.525000
0.529167
0.525000
0.516667
0.537500
0.570833
0.470833
0.525000
0.520833
0.516667
0.520833
0.520833
0.516667
0.516667
0.520833
0.516667
0.520833
0.516667
0.520833
0.520833
0.520833
0.525000
0.525000
0.520833
0.525000
0.229167
0.191667
0.625000
0.520833
0.512500
0.520833
0.516667
0.512500
0.512500
0.516667
0.512500
0.512500
0.516667
0.516667
0.512500
0.516667
0.520833
0.516667
0.516667
0.516667
0.516667
0.516667
0.516667
0.429167
0.208333
0.395833
0.525000
0.512500
0.516667
0.516667
0.512500
0.516667
0.375000
0.662500
0.308333
0.200000
0.520833
0.516667
0.516667
0.512500
0.516667
0.512500
0.516667
0.508333
0.520833
0.508333
0.512500
0.520833
0.512500
0.512500
0.512500
0.512500
0.520833
0.512500
0.516667
0.512500
0.512500
0.516667
0.508333
0.225000
0.187500
0.104167
0.512500
0.512500
0.512500
0.508333
0.512500
0.512500
0.508333
0.508333
0.508333
0.508333
0.508333
0.508333
0.512500
0.508333
0.508333
0.512500
0.508333
0.512500
0.512500
0.512500
0.508333
0.512500
0.512500
0.512500
0.512500
0.512500
0.512500
0.512500
0.516667
0.512500
0.512500
0.512500
0.512500
0.512500
0.516667
0.454167
0.562500
0.220833
0.716667
0.595833
0.508333
0.516667
0.504167
0.512500
0.512500
0.508333
0.512500
0.508333
0.512500
0.508333
0.504167
0.508333
0.512500
0.237500
0.266667
0.504167
0.504167
0.508333
0.504167
0.508333
0.508333
0.508333
0.500000
0.504167
0.504167
0.504167
0.504167
0.504167
0.504167
0.504167
0.504167
0.508333
0.508333
0.508333
0.508333
0.508333
0.508333
0.512500
0.508333
0.512500
0.512500
0.512500
0.516667
0.512500
0.520833
0.512500
0.512500
0.516667
0.516667
0.512500
0.508333
0.270833
0.445833
0.545833
0.279167
0.512500
0.508333
0.512500
0.512500
0.512500
0.516667
0.512500
0.516667
0.512500
0.516667
0.516667
0.516667
0.520833
0.516667
0.516667
0.516667
0.512500
0.516667
0.512500
0.516667
0.520833
0.516667
0.516667
0.516667
0.520833
0.520833
0.520833
0.525000
0.525000
0.520833
0.529167
0.529167
0.525000
0.525000
0.520833
0.529167
0.529167
0.529167
0.529167
0.533333
0.533333
0.529167
0.529167
0.529167
0.529167
0.537500
0.525000
0.533333
0.529167
0.529167
0.529167
0.529167
0.533333
0.533333
0.529167
0.533333
0.533333
0.529167
0.533333
0.533333
0.529167
0.529167
0.533333
0.533333
0.533333
0.541667
0.533333
0.533333
0.537500
0.533333
0.533333
0.529167
0.533333
0.541667
0.533333
0.537500
0.537500
0.533333
0.541667
0.533333
0.537500
0.537500
0.537500
0.537500
0.545833
0.541667
0.541667
0.545833
0.545833
0.545833
0.541667
0.541667
0.537500
0.541667
0.537500
0.416667
0.654167
0.541667
0.537500
0.537500
0.537500
0.533333
0.537500
0.533333
0.529167
0.541667
0.537500
0.533333
0.541667
0.541667
0.537500
0.537500
0.537500
0.537500
0.537500
0.533333
0.537500
0.541667
0.537500
0.541667
0.537500
0.541667
0.541667
0.541667
0.541667
0.545833
0.545833
0.545833
0.541667
0.125000
0.416667
0.545833
0.541667
0.541667
0.250000
0.287500
0.533333
0.537500
0.533333
0.533333
0.600000
0.345833
0.641667
0.741667
0.150000
0.175000
0.520833
0.291667
0.233333
0.241667
0.804167
0.520833
0.512500
0.533333
0.491667
0.404167
0.108333
0.341667
0.670833
0.508333
0.512500
0.625000
0.550000
0.470833
0.220833
0.654167
0.508333
0.504167
0.508333
0.512500
0.512500
0.512500
0.512500
0.516667
0.516667
0.516667
0.512500
0.520833
0.641667
0.391667
0.500000
0.241667
0.341667
0.466667
0.512500
0.516667
0.512500
0.516667
0.516667
0.525000
0.520833
0.516667
0.525000
0.520833
0.520833
0.520833
0.520833
0.520833
0.525000
0.525000
0.525000
0.529167
0.525000
0.529167
0.525000
0.525000
0.529167
0.525000
0.529167
0.525000
0.525000
0.533333
0.529167
0.533333
0.533333
0.533333
0.533333
0.533333
0.525000
0.533333
0.529167
0.529167
0.533333
0.525000
0.529167
0.533333
0.529167
0.533333
0.533333
0.533333
0.533333
0.537500
0.537500
0.537500
0.529167
0.537500
0.545833
0.537500
0.541667
0.541667
0.541667
0.541667
0.545833
0.545833
0.545833
0.537500
0.545833
0.545833
0.541667
0.545833
0.304167
0.758333
0.533333
0.533333
0.520833
0.525000
0.520833
0.520833
0.729167
0.320833
0.108333
0.404167
0.516667
0.512500
0.525000
0.512500
0.520833
0.516667
0.516667
0.512500
0.512500
0.520833
0.516667
0.445833
0.200000
0.158333
0.745833
0.512500
0.679167
0.345833
0.512500
0.516667
0.516667
0.504167
0.508333
0.512500
0.508333
0.508333
0.508333
0.512500
0.504167
0.508333
0.516667
0.512500
0.516667
0.516667
0.512500
0.520833
0.525000
0.525000
0.529167
0.525000
0.520833
0.525000
0.520833
0.525000
0.525000
0.520833
0.520833
0.525000
0.525000
0.520833
0.525000
0.520833
0.529167
0.525000
0.529167
0.525000
0.529167
0.525000
0.529167
0.529167
0.525000
0.533333
0.525000
0.537500
0.529167
0.537500
0.529167
0.525000
0.529167
0.529167
0.533333
0.533333
0.537500
0.541667
0.545833
0.545833
0.541667
0.537500
0.550000
0.545833
0.545833
0.545833
0.316667
0.116667
0.645833
0.537500
0.545833
0.541667
0.537500
0.533333
0.537500
0.579167
0.358333
0.125000
0.533333
0.529167
0.529167
0.529167
0.533333
0.525000
0.529167
0.533333
0.533333
0.529167
0.533333
0.537500
0.533333
0.537500
0.529167
0.533333
0.533333
0.533333
0.537500
0.529167
0.750000
0.308333
0.533333
0.533333
0.520833
0.262500
0.270833
0.525000
0.300000
0.429167
0.200000
0.462500
0.591667
0.608333
0.520833
0.516667
0.516667
0.516667
0.516667
0.516667
0.516667
0.516667
0.516667
0.516667
0.512500
0.516667
0.516667
0.520833
0.512500
0.516667
0.516667
0.520833
0.525000
0.516667
0.516667
0.520833
0.525000
0.520833
0.529167
0.525000
0.525000
0.525000
0.525000
0.525000
0.525000
0.533333
0.533333
0.533333
0.533333
0.529167
0.533333
0.537500
0.533333
0.533333
0.537500
0.533333
0.537500
0.537500
0.537500
0.545833
0.541667
0.545833
0.537500
0.533333
0.533333
0.266667
0.266667
0.525000
0.529167
0.216667
0.304167
0.525000
0.525000
0.516667
0.520833
0.525000
0.516667
0.516667
0.520833
0.520833
0.516667
0.516667
0.516667
0.520833
0.520833
0.520833
0.512500
0.525000
0.516667
0.525000
0.520833
0.520833
0.520833
0.525000
0.520833
0.525000
0.525000
0.529167
0.529167
0.533333
0.525000
0.525000
0.525000
0.537500
0.525000
0.529167
0.529167
0.275000
0.537500
0.354167
0.404167
0.516667
0.520833
0.525000
0.520833
0.525000
0.520833
0.525000
0.525000
0.516667
0.525000
0.525000
0.525000
0.525000
0.520833
0.525000
0.529167
0.529167
0.529167
0.529167
0.529167
0.529167
0.533333
0.533333
0.533333
0.533333
0.541667
0.533333
0.545833
0.254167
0.279167
0.733333
0.425000
0.437500
0.529167
0.525000
0.529167
0.529167
0.529167
0.520833
0.525000
0.525000
0.520833
0.520833
0.525000
0.520833
0.520833
0.529167
0.529167
0.529167
0.525000
0.529167
0.533333
0.525000
0.529167
0.533333
0.529167
0.533333
0.529167
0.533333
0.533333
0.537500
0.533333
0.533333
0.537500
0.533333
0.529167
0.533333
0.533333
0.537500
0.533333
0.533333
0.541667
0.537500
0.537500
0.537500
0.537500
0.533333
0.537500
0.533333
0.533333
0.533333
0.533333
0.537500
0.529167
0.537500
0.537500
0.533333
0.533333
0.541667
0.537500
0.541667
0.541667
0.541667
0.541667
0.541667
0.545833
0.545833
0.545833
0.541667
0.541667
0.545833
0.541667
0.550000
0.545833
0.541667
0.545833
0.541667
0.541667
0.529167
0.537500
0.533333
0.525000
0.529167
0.529167
0.304167
0.350000
0.304167
0.320833
0.508333
0.220833
0.250000
0.383333
0.516667
0.520833
0.512500
0.516667
0.512500
0.512500
0.512500
0.520833
0.516667
0.520833
0.520833
0.520833
0.525000
0.525000
0.520833
0.520833
0.520833
0.525000
0.520833
0.520833
0.525000
0.525000
0.520833
0.529167
0.520833
0.525000
0.529167
0.529167
0.529167
0.533333
0.529167
0.533333
0.541667
0.541667
0.541667
0.533333
0.541667
0.541667
0.545833
0.537500
0.541667
0.541667
0.208333
0.212500
0.662500
0.537500
0.541667
0.541667
0.541667
0.537500
0.541667
0.533333
0.200000
0.341667
0.229167
0.837500
0.537500
0.541667
0.533333
0.541667
0.529167
0.529167
0.529167
0.525000
0.529167
0.529167
0.525000
0.529167
0.533333
0.533333
0.541667
0.537500
0.537500
0.541667
0.533333
0.537500
0.533333
0.537500
0.537500
0.529167
0.541667
0.533333
0.541667
0.675000
0.387500
0.533333
0.429167
0.100000
0.525000
0.525000
0.525000
0.529167
0.262500
0.254167
0.529167
0.525000
0.520833
0.525000
0.520833
0.520833
0.520833
0.516667
0.520833
0.525000
0.525000
0.520833
0.525000
0.525000
0.525000
0.525000
0.525000
0.525000
0.525000
0.520833
0.520833
0.529167
0.520833
0.525000
0.512500
0.533333
0.566667
0.470833
0.525000
0.516667
0.520833
0.466667
0.050000
0.520833
0.520833
0.520833
0.516667
0.516667
0.512500
0.516667
0.516667
0.516667
0.512500
0.516667
0.516667
0.520833
0.520833
0.516667
0.520833
0.525000
0.520833
0.516667
0.512500
0.512500
0.516667
0.595833
0.445833
0.508333
0.516667
0.512500
0.508333
0.512500
0.516667
0.512500
0.508333
0.508333
0.512500
0.516667
0.512500
0.516667
0.512500
0.520833
0.516667
