0.512500
0.512500
0.516667
0.516667
0.504167
0.512500
0.512500
0.525000
0.516667
0.516667
0.512500
0.516667
0.516667
0.508333
0.508333
0.512500
0.504167
0.508333
0.495833
0.504167
0.508333
0.512500
0.512500
0.508333
0.508333
0.508333
0.516667
0.525000
0.508333
0.508333
0.512500
0.512500
0.512500
0.508333
0.504167
0.508333
0.516667
0.512500
0.504167
0.504167
0.516667
0.508333
0.508333
0.504167
0.504167
0.508333
0.512500
0.512500
0.504167
0.504167
0.512500
0.516667
0.508333
0.512500
0.512500
0.529167
0.516667
0.516667
0.508333
0.508333
0.508333
0.504167
0.495833
0.508333
0.654167
0.354167
0.495833
0.495833
0.504167
0.500000
0.495833
0.491667
0.504167
0.504167
0.504167
0.504167
0.620833
0.383333
0.495833
0.500000
0.495833
0.491667
0.491667
0.491667
0.495833
0.483333
0.500000
0.491667
0.579167
0.387500
0.491667
0.500000
0.383333
0.300000
0.783333
0.495833
0.491667
0.379167
0.595833
0.495833
0.487500
0.500000
0.487500
0.491667
0.487500
0.491667
0.483333
0.225000
0.270833
0.516667
0.516667
0.379167
0.258333
0.370833
0.504167
0.495833
0.500000
0.491667
0.495833
0.487500
0.491667
0.508333
0.520833
0.516667
0.504167
0.504167
0.508333
0.508333
0.508333
0.495833
0.500000
0.495833
0.495833
0.491667
0.495833
0.508333
0.495833
0.500000
0.495833
0.508333
0.500000
0.491667
0.495833
0.500000
0.575000
0.087500
0.370833
0.345833
0.600000
0.512500
0.491667
0.495833
0.495833
0.495833
0.491667
0.483333
0.491667
0.487500
0.487500
0.487500
0.491667
0.487500
0.483333
0.500000
0.495833
0.495833
0.491667
0.504167
0.504167
0.500000
0.495833
0.491667
0.495833
0.500000
0.754167
0.233333
0.312500
0.404167
0.275000
0.520833
0.650000
0.391667
0.516667
0.512500
0.495833
0.504167
0.512500
0.516667
0.504167
0.520833
0.512500
0.520833
0.504167
0.504167
0.516667
0.520833
0.516667
0.516667
0.487500
0.550000
0.541667
0.541667
0.633333
0.108333
0.241667
0.325000
0.900000
1.141667
0.645833
1.270833
0.641667
0.604167
0.550000
0.533333
0.520833
0.512500
0.508333
0.508333
0.504167
0.508333
0.358333
0.650000
0.516667
0.504167
0.491667
0.487500
0.483333
0.495833
0.491667
0.491667
0.487500
0.479167
0.479167
0.491667
0.479167
0.483333
0.500000
0.487500
0.662500
0.625000
0.162500
0.287500
0.362500
0.616667
0.658333
0.487500
0.479167
0.487500
0.479167
0.320833
0.229167
0.412500
0.483333
0.491667
0.483333
0.483333
0.487500
0.487500
0.483333
0.491667
0.487500
0.483333
0.495833
0.483333
0.491667
0.495833
0.520833
0.425000
0.350000
0.475000
0.270833
0.520833
0.512500
0.500000
0.504167
0.504167
0.504167
0.504167
0.483333
0.495833
0.495833
0.487500
0.491667
0.233333
0.254167
0.479167
0.483333
0.491667
0.479167
0.483333
0.483333
0.483333
0.479167
0.479167
0.483333
0.479167
0.483333
0.479167
0.483333
0.479167
0.479167
0.479167
0.470833
0.479167
0.475000
0.479167
0.479167
0.475000
0.483333
0.487500
0.487500
0.491667
0.466667
0.487500
0.983333
0.475000
0.487500
0.495833
0.483333
0.258333
0.541667
0.154167
0.479167
0.479167
0.483333
0.479167
0.479167
0.470833
0.487500
0.470833
0.470833
0.475000
0.475000
0.475000
0.487500
0.475000
0.483333
0.479167
0.487500
0.379167
0.579167
0.479167
0.479167
0.483333
0.495833
0.483333
0.487500
0.479167
0.491667
0.500000
0.500000
0.504167
0.216667
0.279167
0.495833
0.487500
0.487500
0.487500
0.487500
0.479167
0.479167
0.483333
0.487500
0.704167
0.258333
0.479167
0.479167
0.487500
0.491667
0.620833
0.341667
0.475000
0.487500
0.379167
0.204167
0.200000
0.112500
0.766667
0.254167
0.479167
0.479167
0.479167
0.487500
0.266667
0.416667
0.133333
0.341667
0.283333
0.483333
0.487500
0.483333
0.966667
0.470833
0.483333
0.479167
0.470833
0.475000
0.479167
0.475000
0.483333
0.470833
0.487500
0.475000
0.475000
0.479167
0.466667
0.475000
0.475000
0.479167
0.470833
0.954167
0.475000
0.479167
0.483333
0.479167
0.475000
0.479167
0.479167
0.479167
0.470833
0.358333
0.750000
0.312500
0.462500
0.604167
0.108333
0.233333
0.479167
0.479167
0.479167
0.466667
0.470833
0.370833
0.645833
0.691667
0.400000
0.504167
0.500000
0.487500
0.487500
0.475000
0.475000
0.470833
0.475000
0.470833
0.462500
0.470833
0.475000
0.566667
0.666667
0.179167
0.479167
0.483333
0.475000
0.516667
0.608333
0.370833
0.891667
0.470833
0.779167
0.645833
0.462500
0.691667
0.270833
0.962500
0.466667
0.479167
0.933333
0.466667
0.470833
0.475000
0.350000
0.275000
0.779167
0.466667
0.541667
0.845833
0.466667
0.462500
0.466667
0.329167
0.587500
0.470833
0.937500
0.545833
0.387500
0.475000
0.479167
0.741667
0.316667
0.833333
0.479167
0.462500
0.491667
0.445833
0.470833
0.470833
0.929167
0.470833
0.462500
0.441667
0.487500
0.325000
0.508333
0.091667
0.466667
0.920833
0.700000
0.741667
0.870833
0.475000
0.937500
0.933333
0.466667
0.470833
0.458333
0.450000
0.470833
0.462500
0.587500
0.325000
0.454167
0.462500
0.920833
0.458333
0.454167
0.462500
0.458333
0.458333
0.466667
0.466667
0.475000
0.266667
0.191667
0.650000
0.733333
0.270833
0.825000
0.270833
0.454167
0.458333
0.462500
0.454167
0.462500
0.466667
0.458333
0.462500
0.458333
0.458333
0.920833
0.458333
0.462500
0.475000
0.520833
0.400000
0.462500
0.466667
0.229167
0.229167
0.458333
0.475000
0.437500
0.970833
0.466667
0.462500
0.462500
0.462500
0.208333
0.312500
0.391667
0.458333
0.454167
0.454167
0.454167
0.454167
0.454167
0.445833
0.450000
0.458333
0.458333
0.662500
0.091667
0.620833
0.454167
0.595833
0.133333
1.108333
0.462500
0.733333
0.208333
0.470833
0.462500
0.466667
0.454167
0.466667
0.454167
0.625000
0.645833
0.300000
0.445833
0.262500
0.537500
0.225000
0.266667
0.320833
0.454167
0.450000
0.454167
0.445833
0.229167
0.658333
0.445833
0.450000
0.445833
0.279167
0.612500
0.441667
0.450000
0.445833
0.445833
0.450000
0.900000
0.441667
0.450000
0.454167
0.450000
0.445833
0.450000
0.654167
0.458333
0.683333
0.450000
0.891667
0.441667
0.320833
0.583333
0.445833
0.750000
0.325000
0.266667
0.666667
0.866667
0.354167
0.491667
0.450000
0.454167
0.275000
0.883333
0.445833
0.445833
0.441667
0.441667
0.437500
0.441667
0.879167
0.437500
0.554167
0.770833
0.337500
0.104167
0.375000
0.341667
0.891667
0.612500
0.883333
0.891667
0.779167
1.433333
1.325000
1.529167
0.316667
0.608333
1.516667
1.787500
1.791667
0.450000
0.950000
1.304167
0.358333
0.995833
0.445833
1.800000
0.445833
0.450000
0.883333
0.466667
0.354167
0.983333
0.450000
0.887500
0.883333
0.445833
0.450000
0.895833
0.450000
0.537500
0.704167
0.350000
0.345833
0.304167
0.458333
0.770833
1.004167
0.883333
0.883333
0.441667
0.429167
1.083333
0.245833
0.233333
0.654167
0.879167
0.891667
0.437500
0.870833
0.441667
0.883333
0.441667
0.616667
0.704167
0.875000
1.241667
0.987500
1.337500
1.362500
0.904167
1.341667
0.337500
0.758333
0.379167
0.291667
0.450000
0.437500
0.883333
0.883333
0.891667
0.445833
0.441667
0.445833
0.454167
0.445833
0.454167
0.441667
0.445833
0.454167
0.450000
0.900000
0.904167
0.454167
0.450000
0.445833
0.454167
0.229167
0.504167
0.625000
0.454167
0.445833
0.458333
0.458333
0.450000
0.454167
0.458333
0.912500
0.450000
0.450000
0.441667
0.450000
0.450000
0.445833
0.445833
0.445833
0.454167
0.445833
0.445833
0.445833
0.445833
0.891667
0.441667
0.450000
0.445833
0.900000
0.450000
0.450000
0.908333
0.445833
0.358333
0.212500
0.329167
0.450000
0.450000
0.445833
0.441667
0.550000
0.591667
0.204167
0.545833
0.291667
0.379167
0.900000
0.987500
0.900000
0.891667
0.445833
0.450000
0.450000
0.445833
0.445833
0.637500
0.479167
0.379167
0.562500
0.637500
0.904167
0.558333
0.791667
0.908333
0.887500
1.337500
0.445833
0.437500
0.445833
0.437500
0.445833
0.345833
0.533333
0.887500
0.433333
0.437500
0.445833
0.308333
0.966667
0.604167
0.312500
0.333333
0.316667
0.658333
0.866667
0.441667
0.875000
0.220833
0.662500
0.720833
0.604167
0.879167
1.483333
0.187500
0.545833
0.450000
0.758333
0.579167
0.441667
0.891667
0.879167
0.445833
0.520833
0.883333
0.283333
0.550000
0.495833
1.020833
0.250000
0.883333
0.445833
0.875000
0.445833
0.441667
0.333333
0.458333
0.291667
1.137500
0.829167
0.504167
0.891667
0.450000
1.137500
0.625000
0.441667
0.445833
0.429167
0.441667
0.966667
0.425000
0.795833
0.437500
0.445833
0.875000
0.437500
0.441667
0.883333
0.441667
0.445833
0.441667
0.445833
0.870833
0.875000
0.437500
0.545833
0.187500
0.225000
0.525000
0.379167
0.412500
0.762500
0.433333
0.875000
0.450000
0.433333
0.437500
0.441667
0.445833
0.441667
0.441667
0.441667
0.608333
0.287500
0.433333
0.591667
0.291667
0.883333
1.075000
0.287500
0.862500
0.791667
1.479167
0.450000
1.341667
0.445833
0.441667
0.450000
0.762500
1.004167
0.891667
1.337500
0.441667
0.537500
0.354167
0.783333
0.975000
1.320833
1.320833
1.329167
1.329167
0.445833
0.445833
0.883333
0.883333
0.891667
0.445833
0.450000
0.450000
0.691667
0.170833
0.491667
0.458333
0.450000
0.454167
0.895833
0.445833
0.904167
0.766667
0.150000
0.920833
0.462500
0.458333
0.458333
0.904167
0.454167
0.450000
0.825000
0.533333
0.475000
0.416667
0.895833
0.900000
0.445833
0.450000
0.895833
0.441667
0.450000
0.441667
0.900000
0.445833
0.445833
0.900000
0.445833
0.445833
0.445833
0.445833
0.450000
0.891667
0.883333
0.441667
0.883333
0.437500
0.445833
0.441667
0.887500
0.445833
0.441667
0.445833
0.441667
0.337500
0.550000
0.441667
0.887500
0.883333
0.562500
0.762500
0.450000
0.437500
0.600000
0.287500
0.445833
0.441667
0.987500
0.245833
0.383333
0.604167
0.437500
0.258333
0.187500
0.437500
0.633333
0.495833
0.345833
0.175000
0.454167
0.129167
0.570833
0.500000
0.208333
0.437500
0.875000
0.587500
0.291667
0.495833
0.379167
0.383333
0.504167
0.429167
0.437500
0.437500
0.441667
0.870833
0.437500
0.437500
0.437500
0.437500
0.437500
0.433333
0.437500
0.437500
0.437500
0.437500
0.437500
0.437500
0.433333
0.437500
0.437500
0.437500
0.437500
0.437500
0.433333
0.441667
0.437500
0.875000
0.441667
0.437500
0.437500
0.437500
0.441667
0.437500
0.441667
0.437500
0.441667
0.441667
0.445833
0.437500
0.441667
0.995833
0.337500
0.445833
0.445833
0.441667
0.445833
0.883333
0.975000
0.350000
0.441667
0.441667
0.441667
0.441667
0.437500
0.445833
0.441667
0.445833
0.441667
0.450000
0.887500
0.445833
0.445833
0.450000
0.445833
0.891667
0.441667
0.445833
0.441667
0.445833
0.441667
0.891667
0.437500
0.883333
0.445833
0.445833
0.445833
0.879167
0.445833
0.445833
0.445833
0.450000
0.450000
0.895833
0.445833
0.445833
0.445833
0.445833
0.445833
0.445833
0.887500
0.445833
0.450000
0.445833
0.445833
0.895833
0.441667
0.450000
0.445833
0.450000
0.450000
0.895833
0.445833
0.454167
0.454167
0.454167
0.450000
0.454167
0.904167
0.454167
0.454167
0.450000
0.450000
0.454167
0.450000
0.454167
0.454167
0.454167
0.904167
0.454167
0.450000
0.454167
0.345833
1.000000
0.450000
0.450000
0.445833
0.454167
0.895833
0.450000
0.450000
0.450000
0.454167
0.454167
0.908333
0.450000
0.458333
