1.370833
1.158333
1.012500
1.033333
0.995833
0.991667
0.995833
0.683333
0.308333
0.991667
0.975000
0.987500
0.366667
0.720833
0.691667
1.425000
0.529167
0.775000
0.691667
0.783333
0.729167
0.783333
0.729167
0.491667
1.391667
1.054167
1.025000
1.025000
0.762500
0.708333
0.725000
0.341667
0.362500
0.320833
0.358333
0.441667
0.391667
0.366667
0.375000
0.345833
0.350000
0.383333
0.370833
0.358333
0.341667
0.362500
0.370833
0.358333
0.354167
0.362500
0.362500
0.400000
0.391667
0.250000
0.420833
0.350000
0.341667
0.379167
0.391667
0.366667
0.366667
0.358333
0.400000
0.429167
0.370833
0.366667
0.333333
0.320833
0.362500
0.354167
0.337500
0.362500
0.358333
0.362500
0.354167
0.341667
0.354167
0.366667
0.425000
0.412500
0.437500
0.395833
0.679167
0.291667
0.483333
0.395833
0.258333
0.454167
0.337500
0.241667
0.533333
0.350000
0.241667
0.500000
0.370833
0.358333
0.237500
0.600000
0.458333
0.520833
0.387500
0.345833
0.337500
0.341667
0.354167
0.345833
0.350000
0.433333
1.650000
0.479167
0.366667
0.329167
0.379167
1.637500
1.033333
1.183333
1.254167
1.091667
1.037500
0.933333
0.862500
1.058333
0.958333
0.962500
0.950000
0.975000
0.820833
0.941667
0.937500
0.929167
1.045833
0.916667
0.362500
0.287500
0.345833
0.312500
0.320833
0.329167
0.341667
0.345833
0.341667
0.391667
0.387500
0.383333
0.354167
0.350000
0.366667
0.366667
0.366667
0.345833
0.379167
0.400000
0.375000
0.354167
0.400000
0.400000
0.391667
0.387500
0.375000
0.366667
0.245833
0.595833
0.579167
0.383333
0.350000
0.370833
0.370833
0.366667
0.370833
0.387500
0.375000
0.345833
0.337500
0.350000
0.350000
0.537500
0.387500
0.329167
0.337500
0.345833
0.362500
0.370833
0.370833
0.245833
0.495833
0.350000
0.345833
0.354167
0.362500
0.441667
0.254167
0.504167
0.333333
0.241667
0.545833
0.400000
0.400000
0.250000
0.445833
0.387500
0.341667
0.345833
0.337500
0.329167
0.366667
0.337500
0.237500
0.337500
0.604167
0.466667
0.425000
0.466667
0.437500
0.362500
0.325000
0.370833
0.375000
0.358333
0.366667
0.391667
0.545833
0.400000
0.350000
0.316667
0.395833
0.416667
0.404167
0.350000
0.366667
0.412500
0.379167
0.237500
0.495833
0.425000
0.475000
0.391667
0.375000
0.383333
0.366667
0.375000
0.358333
0.354167
0.354167
0.362500
0.237500
0.600000
0.391667
0.366667
0.366667
0.379167
0.379167
0.445833
0.387500
0.400000
0.391667
0.358333
0.404167
0.395833
0.375000
0.354167
0.237500
0.508333
0.237500
0.416667
0.537500
0.366667
0.350000
0.366667
0.354167
0.579167
0.254167
0.533333
0.250000
0.483333
0.379167
0.375000
0.366667
0.433333
0.425000
0.383333
0.425000
0.416667
0.383333
0.241667
0.516667
0.408333
0.379167
0.379167
0.362500
0.237500
0.600000
0.591667
0.462500
0.383333
0.383333
0.466667
0.366667
0.358333
0.383333
0.362500
0.358333
0.366667
0.370833
0.362500
0.366667
0.233333
0.370833
0.341667
0.500000
0.358333
0.237500
0.475000
0.470833
0.245833
0.391667
0.370833
0.516667
0.425000
0.241667
0.400000
0.479167
0.229167
0.462500
0.341667
0.341667
0.345833
0.229167
0.354167
0.375000
0.345833
0.491667
0.358333
0.366667
0.362500
0.241667
0.375000
0.475000
0.370833
0.233333
0.333333
0.454167
0.566667
0.408333
0.354167
0.333333
0.370833
0.233333
0.562500
0.241667
0.500000
0.379167
0.383333
0.370833
0.379167
0.237500
0.516667
0.375000
0.370833
0.370833
0.383333
0.370833
0.366667
0.233333
0.379167
0.570833
0.420833
0.237500
0.583333
0.370833
0.237500
0.345833
0.437500
0.500000
0.229167
0.487500
0.366667
0.366667
0.370833
0.387500
0.379167
0.362500
0.379167
0.362500
0.383333
0.233333
0.554167
0.425000
0.387500
0.358333
0.383333
0.233333
0.520833
0.379167
0.379167
0.366667
0.233333
0.366667
0.583333
0.466667
0.391667
0.470833
0.487500
0.400000
0.358333
0.350000
0.337500
0.233333
0.387500
0.558333
0.387500
0.358333
0.237500
0.458333
0.233333
0.508333
0.233333
0.616667
0.370833
0.308333
0.320833
0.616667
0.404167
0.362500
0.354167
0.362500
0.425000
0.233333
0.495833
0.350000
0.350000
0.350000
0.383333
0.233333
0.387500
0.591667
0.433333
0.400000
0.370833
0.241667
0.454167
0.341667
0.233333
0.350000
0.491667
0.233333
0.487500
0.329167
0.329167
0.366667
0.229167
0.487500
0.233333
0.366667
0.504167
0.358333
0.362500
0.370833
0.366667
0.337500
0.229167
0.500000
0.362500
0.345833
0.379167
0.383333
0.379167
0.379167
0.450000
0.379167
0.375000
0.366667
0.233333
0.479167
0.350000
0.225000
0.512500
0.375000
0.370833
0.366667
0.358333
0.233333
0.525000
0.354167
0.370833
0.237500
0.516667
0.379167
0.333333
0.295833
0.225000
0.466667
0.337500
0.333333
0.395833
0.412500
0.466667
0.429167
0.387500
0.366667
0.375000
0.237500
0.508333
0.375000
0.225000
0.583333
0.379167
0.358333
0.370833
0.366667
0.366667
0.379167
0.370833
0.341667
0.362500
0.387500
0.375000
0.237500
0.400000
0.225000
0.550000
0.370833
0.358333
0.362500
0.225000
0.358333
0.537500
0.362500
0.350000
0.358333
0.345833
0.358333
0.225000
0.508333
0.375000
0.354167
0.370833
0.354167
0.225000
0.487500
0.362500
0.362500
0.345833
0.225000
0.487500
0.366667
0.225000
0.666667
0.237500
0.500000
0.379167
0.233333
0.625000
0.379167
0.337500
0.345833
0.229167
0.350000
0.579167
0.375000
0.379167
0.366667
0.233333
0.470833
0.237500
0.479167
0.341667
0.420833
0.495833
0.545833
0.462500
0.379167
0.358333
0.366667
0.362500
0.341667
0.354167
0.362500
0.387500
0.370833
0.437500
0.391667
0.495833
0.579167
1.554167
1.504167
1.412500
1.379167
1.000000
0.979167
0.958333
0.975000
0.908333
1.000000
1.250000
1.016667
0.862500
1.025000
0.875000
1.191667
1.062500
0.958333
0.937500
0.941667
0.925000
0.950000
0.941667
0.929167
0.945833
0.945833
0.929167
0.945833
0.950000
0.945833
0.950000
0.941667
0.945833
0.945833
0.929167
0.941667
0.358333
0.366667
0.262500
0.687500
0.283333
0.516667
0.383333
1.416667
0.462500
0.345833
0.337500
0.337500
0.362500
0.375000
0.362500
0.375000
0.375000
0.250000
0.525000
0.370833
0.358333
0.350000
0.325000
0.316667
0.337500
0.400000
0.433333
0.379167
0.366667
0.341667
0.625000
0.370833
0.391667
0.375000
0.358333
0.358333
0.362500
0.387500
0.370833
0.383333
0.370833
0.350000
0.350000
0.366667
0.379167
0.387500
0.391667
0.383333
0.366667
0.370833
0.370833
0.358333
0.383333
0.375000
0.354167
0.333333
0.345833
0.350000
0.370833
0.366667
0.395833
0.400000
0.433333
0.375000
0.325000
0.337500
0.366667
0.370833
0.350000
0.237500
0.729167
0.391667
0.495833
0.408333
0.387500
0.250000
0.500000
0.375000
0.362500
0.362500
0.241667
0.525000
0.383333
0.366667
0.337500
0.345833
0.354167
0.370833
0.379167
0.375000
0.237500
0.537500
0.375000
0.395833
0.383333
0.350000
0.333333
0.391667
0.391667
0.400000
0.462500
0.395833
0.358333
0.237500
0.662500
0.533333
0.516667
0.512500
0.516667
0.512500
0.512500
0.516667
0.512500
0.516667
0.512500
0.516667
0.512500
0.516667
0.516667
0.512500
0.516667
0.516667
0.516667
0.516667
0.512500
0.516667
0.516667
0.516667
0.525000
0.516667
0.516667
0.516667
0.516667
0.525000
0.516667
0.516667
0.516667
0.516667
0.520833
0.520833
0.512500
0.520833
0.512500
0.525000
0.525000
0.516667
0.516667
0.516667
0.520833
0.520833
0.516667
0.516667
0.512500
0.520833
0.520833
0.516667
0.516667
0.512500
0.516667
0.520833
0.516667
0.516667
0.516667
0.512500
0.512500
0.520833
0.516667
0.516667
0.516667
0.512500
0.516667
0.516667
0.516667
0.516667
0.512500
0.512500
0.525000
0.512500
0.512500
0.516667
0.512500
0.516667
0.516667
0.516667
0.512500
0.516667
0.512500
0.516667
0.516667
0.512500
0.520833
0.508333
0.512500
0.520833
0.516667
0.516667
0.512500
0.512500
0.512500
0.516667
0.512500
0.516667
0.512500
0.512500
0.516667
0.512500
0.516667
0.512500
0.508333
0.516667
0.516667
0.516667
0.508333
0.512500
0.512500
0.516667
0.516667
0.508333
0.516667
0.504167
0.512500
0.516667
0.512500
0.512500
0.512500
0.508333
0.516667
0.512500
0.512500
0.512500
0.504167
0.512500
0.512500
0.512500
0.512500
0.508333
0.508333
0.508333
0.516667
0.512500
0.508333
0.508333
0.508333
0.516667
0.512500
0.504167
0.512500
0.504167
0.516667
0.508333
0.508333
0.512500
0.504167
0.512500
0.512500
0.508333
0.508333
0.504167
0.516667
0.508333
0.512500
0.508333
0.504167
0.508333
0.512500
0.512500
0.508333
0.508333
0.504167
0.512500
0.512500
0.508333
0.508333
0.508333
0.508333
0.512500
0.508333
0.508333
0.504167
0.508333
0.512500
0.508333
0.508333
0.508333
0.504167
0.508333
0.512500
0.508333
0.508333
0.504167
0.508333
0.508333
0.512500
0.504167
0.475000
0.487500
0.508333
0.508333
0.504167
0.504167
0.500000
0.504167
0.508333
0.504167
0.500000
0.504167
0.495833
0.516667
0.500000
0.504167
0.508333
0.491667
0.512500
0.504167
0.504167
0.504167
0.491667
0.508333
0.504167
0.504167
0.500000
0.504167
0.500000
0.508333
0.500000
0.504167
0.504167
0.495833
0.512500
0.500000
0.508333
0.500000
0.500000
0.504167
0.500000
0.508333
0.495833
0.504167
0.500000
0.504167
0.504167
0.500000
0.504167
0.500000
0.500000
0.508333
0.500000
0.504167
0.500000
0.500000
0.508333
0.500000
0.504167
0.495833
0.504167
0.508333
0.495833
0.508333
0.495833
0.504167
0.508333
0.495833
0.508333
0.495833
0.504167
0.500000
0.504167
0.508333
0.491667
0.508333
0.491667
0.508333
0.508333
0.495833
0.504167
0.495833
0.500000
0.508333
0.495833
0.508333
0.491667
0.500000
0.508333
0.495833
0.508333
0.495833
0.500000
0.500000
0.504167
0.508333
0.495833
0.504167
0.491667
0.508333
0.504167
0.495833
0.504167
0.491667
0.504167
0.504167
0.495833
0.504167
0.495833
0.500000
0.495833
0.508333
0.504167
0.491667
0.504167
0.491667
0.512500
0.500000
0.500000
0.504167
0.487500
0.504167
0.504167
0.500000
0.500000
0.495833
0.500000
0.500000
0.504167
0.500000
0.495833
0.500000
0.495833
0.504167
0.504167
0.500000
0.500000
0.495833
0.500000
0.504167
0.495833
0.504167
0.495833
0.500000
0.500000
0.500000
0.504167
0.495833
0.500000
0.495833
0.500000
0.504167
0.495833
0.504167
0.495833
0.495833
0.504167
0.500000
0.504167
0.491667
0.500000
0.495833
0.495833
0.508333
0.495833
0.504167
0.495833
0.500000
0.504167
0.495833
0.504167
0.495833
0.500000
0.495833
0.495833
0.504167
0.491667
0.508333
0.491667
0.500000
0.508333
0.495833
0.504167
0.491667
0.504167
0.495833
0.504167
0.504167
0.487500
0.508333
0.491667
0.508333
0.495833
0.500000
0.500000
0.491667
0.504167
0.500000
0.500000
0.495833
0.504167
0.495833
0.504167
0.500000
0.500000
0.500000
0.495833
0.500000
0.500000
0.495833
0.500000
0.495833
0.491667
0.508333
0.491667
0.504167
0.491667
0.495833
0.508333
0.495833
0.504167
0.491667
0.504167
0.500000
0.500000
0.500000
0.495833
0.500000
0.495833
0.504167
0.495833
0.504167
0.495833
0.495833
0.504167
0.495833
0.504167
0.495833
0.500000
0.495833
0.500000
0.504167
0.495833
0.504167
0.491667
0.500000
0.504167
0.495833
0.500000
0.495833
0.500000
0.500000
0.495833
0.504167
0.495833
0.495833
0.500000
0.500000
0.500000
0.495833
0.500000
0.495833
0.500000
0.500000
0.500000
0.495833
0.495833
0.500000
0.500000
0.500000
0.495833
0.500000
0.495833
0.500000
0.500000
0.500000
0.495833
0.495833
0.504167
0.495833
0.500000
0.495833
0.495833
0.500000
0.500000
0.495833
0.500000
0.495833
0.495833
0.500000
0.495833
0.504167
0.495833
0.495833
0.495833
0.500000
0.500000
0.495833
0.500000
0.495833
0.495833
0.500000
0.500000
0.495833
0.500000
0.495833
0.495833
0.500000
0.500000
0.495833
0.500000
0.495833
0.495833
0.500000
0.500000
0.495833
0.500000
0.491667
0.504167
0.495833
0.500000
0.495833
0.495833
0.500000
0.495833
0.500000
0.495833
0.495833
0.500000
0.495833
0.500000
0.495833
0.495833
0.500000
0.495833
0.500000
0.495833
0.495833
0.500000
0.495833
0.500000
0.495833
0.495833
0.500000
0.495833
0.500000
0.495833
0.495833
0.495833
0.500000
0.495833
0.500000
0.495833
0.495833
0.495833
0.495833
0.500000
0.495833
0.495833
0.495833
0.495833
0.500000
0.495833
0.500000
0.495833
0.491667
0.500000
0.495833
0.500000
0.495833
0.495833
0.495833
0.500000
0.495833
0.495833
0.495833
0.495833
0.495833
0.500000
0.495833
0.495833
0.495833
0.495833
0.500000
0.495833
0.495833
0.495833
0.495833
0.495833
0.495833
0.500000
0.495833
0.495833
0.495833
0.500000
0.491667
0.500000
0.495833
0.495833
