0.533333
0.533333
0.525000
0.554167
0.545833
0.537500
0.541667
0.541667
0.533333
0.541667
0.541667
0.541667
0.545833
0.541667
0.537500
0.541667
0.541667
0.533333
0.541667
0.529167
0.525000
0.541667
0.545833
0.320833
0.220833
0.537500
0.525000
0.541667
0.529167
0.550000
0.529167
0.537500
0.537500
0.541667
0.525000
0.554167
0.529167
0.537500
0.541667
0.533333
1.083333
0.537500
0.545833
0.533333
0.537500
0.545833
0.533333
0.554167
0.537500
0.537500
0.545833
0.550000
0.545833
0.550000
0.541667
0.550000
0.545833
0.550000
0.550000
0.545833
0.558333
0.537500
0.550000
0.554167
0.533333
0.554167
0.550000
0.537500
0.550000
0.541667
0.545833
0.550000
0.537500
0.550000
0.537500
0.554167
0.541667
0.541667
0.550000
0.541667
0.554167
0.541667
0.550000
0.541667
0.550000
0.545833
0.545833
0.554167
0.541667
0.550000
0.550000
0.545833
0.554167
0.541667
0.558333
0.541667
0.554167
0.545833
0.558333
0.545833
0.554167
0.550000
0.550000
0.554167
0.545833
0.554167
0.550000
0.545833
0.550000
0.554167
0.550000
0.550000
0.554167
0.550000
0.550000
0.558333
0.554167
0.554167
0.554167
0.558333
0.554167
0.554167
0.550000
0.554167
0.545833
0.562500
0.554167
0.550000
0.558333
0.545833
0.562500
0.550000
0.562500
0.545833
0.558333
0.558333
0.550000
0.562500
0.545833
0.562500
0.545833
0.558333
0.562500
0.550000
0.562500
0.550000
0.558333
0.554167
0.554167
0.562500
0.550000
0.562500
0.558333
0.545833
0.566667
0.545833
0.558333
0.562500
0.541667
0.558333
0.566667
0.533333
0.370833
0.291667
0.566667
0.433333
0.641667
0.454167
0.116667
0.408333
0.566667
0.541667
0.529167
0.554167
0.537500
0.550000
0.537500
0.554167
0.537500
0.545833
0.545833
0.541667
0.545833
0.545833
0.541667
0.270833
0.812500
0.554167
0.550000
0.537500
0.554167
0.541667
0.662500
0.441667
0.537500
0.554167
0.545833
0.658333
0.437500
0.550000
0.554167
0.541667
0.550000
0.541667
0.558333
0.550000
0.545833
0.550000
0.554167
0.554167
0.541667
0.554167
0.541667
0.558333
0.550000
0.545833
0.550000
0.550000
0.550000
0.537500
0.550000
0.554167
0.541667
0.550000
0.545833
0.554167
0.541667
0.550000
0.554167
0.537500
0.562500
0.537500
0.550000
0.545833
0.550000
0.541667
0.558333
0.537500
0.550000
0.545833
0.545833
0.550000
0.537500
0.541667
0.545833
0.550000
0.537500
0.645833
0.441667
0.529167
0.554167
0.550000
0.637500
0.433333
0.550000
0.533333
0.545833
0.637500
0.445833
0.533333
0.545833
0.537500
0.541667
0.541667
0.541667
0.545833
0.541667
0.545833
0.537500
0.545833
0.541667
0.537500
0.554167
0.537500
0.554167
0.537500
0.541667
0.550000
0.550000
0.550000
0.541667
0.550000
0.545833
0.550000
0.550000
0.541667
0.554167
0.550000
0.545833
0.554167
0.554167
0.545833
0.550000
0.541667
0.554167
0.545833
0.541667
0.550000
0.541667
0.550000
0.554167
0.541667
0.554167
0.541667
0.554167
0.545833
0.550000
0.558333
0.541667
0.558333
0.545833
0.554167
0.554167
0.550000
0.554167
0.554167
0.558333
0.554167
0.562500
0.550000
0.558333
0.566667
0.545833
0.558333
0.562500
0.558333
0.558333
0.562500
0.558333
0.554167
0.558333
0.558333
0.554167
0.562500
0.545833
0.566667
0.550000
0.554167
0.558333
0.541667
0.562500
0.545833
0.554167
0.545833
0.558333
0.550000
0.550000
0.558333
0.545833
0.558333
0.545833
0.558333
0.541667
0.558333
0.541667
0.554167
0.554167
0.554167
0.541667
0.554167
0.550000
0.554167
0.554167
0.550000
0.554167
0.541667
0.558333
0.545833
0.550000
0.554167
0.541667
0.554167
0.554167
0.545833
0.550000
0.558333
0.541667
0.558333
0.554167
0.545833
0.558333
0.554167
0.545833
0.558333
0.554167
0.545833
0.558333
0.550000
0.550000
0.562500
0.550000
0.554167
0.558333
0.554167
0.562500
0.550000
0.566667
0.550000
0.562500
0.554167
0.562500
0.558333
0.554167
0.562500
0.550000
0.562500
0.562500
0.550000
0.562500
0.562500
0.554167
0.558333
0.558333
0.550000
0.566667
0.550000
0.562500
0.558333
0.550000
0.558333
0.558333
0.550000
0.558333
0.566667
0.550000
0.562500
0.562500
0.550000
0.562500
0.550000
0.558333
0.550000
0.558333
0.554167
0.554167
0.558333
0.545833
0.558333
0.554167
0.550000
0.558333
0.545833
0.558333
0.550000
0.554167
0.554167
0.550000
0.558333
0.554167
0.554167
0.558333
0.550000
0.558333
0.554167
0.533333
0.575000
0.545833
0.545833
0.554167
0.545833
0.550000
0.554167
0.545833
0.545833
0.554167
0.541667
0.554167
0.550000
0.545833
0.554167
0.529167
0.550000
0.545833
0.545833
0.558333
0.545833
0.558333
0.545833
0.545833
0.550000
0.541667
0.550000
0.545833
0.550000
0.541667
0.550000
0.541667
0.550000
0.541667
0.554167
0.541667
0.550000
0.545833
0.550000
0.550000
0.545833
0.554167
0.541667
0.554167
0.541667
0.550000
0.554167
0.545833
0.545833
0.550000
0.550000
0.541667
0.558333
0.537500
0.554167
0.550000
0.545833
0.554167
0.545833
0.554167
0.554167
0.545833
0.554167
0.541667
0.554167
0.545833
0.545833
0.554167
0.541667
0.554167
0.541667
0.554167
0.550000
0.545833
0.545833
0.533333
0.550000
0.533333
0.545833
0.537500
0.545833
0.541667
0.545833
0.545833
0.541667
0.554167
0.537500
0.550000
0.541667
0.550000
0.550000
0.537500
0.550000
0.545833
0.545833
0.554167
0.545833
0.550000
0.550000
0.545833
0.550000
0.541667
0.554167
0.554167
0.537500
0.554167
0.550000
0.545833
0.554167
0.541667
0.558333
0.550000
0.558333
0.550000
0.558333
0.550000
0.558333
0.550000
0.558333
0.554167
0.550000
0.558333
0.554167
0.558333
0.554167
0.550000
0.562500
0.545833
0.562500
0.545833
0.562500
0.550000
0.562500
0.550000
0.562500
0.554167
0.558333
0.562500
0.550000
0.562500
0.562500
0.554167
0.558333
0.562500
0.550000
0.562500
0.550000
0.562500
0.550000
0.562500
0.562500
0.550000
0.558333
0.550000
0.558333
0.545833
0.558333
0.545833
0.558333
0.550000
0.545833
0.558333
0.541667
0.554167
0.554167
0.545833
0.558333
0.545833
0.558333
0.550000
0.550000
0.558333
0.550000
0.554167
0.550000
0.550000
0.558333
0.537500
0.675000
0.433333
0.554167
0.266667
0.379167
0.437500
0.445833
0.629167
0.541667
0.550000
0.533333
0.550000
0.645833
0.441667
0.541667
0.537500
0.537500
0.550000
0.533333
0.550000
0.533333
0.550000
0.537500
0.554167
0.537500
0.554167
0.541667
0.550000
0.554167
0.537500
0.562500
0.537500
0.550000
0.554167
0.541667
0.554167
0.541667
0.554167
0.550000
0.541667
0.554167
0.545833
0.545833
0.558333
0.537500
0.545833
0.554167
0.537500
0.550000
0.550000
0.537500
0.554167
0.545833
0.545833
0.554167
0.545833
0.550000
0.558333
0.541667
0.558333
0.550000
0.550000
0.541667
0.550000
0.545833
0.545833
0.558333
0.545833
0.545833
0.562500
0.550000
0.554167
0.566667
0.550000
0.562500
0.566667
0.562500
0.562500
0.570833
0.570833
0.566667
0.562500
0.575000
0.566667
0.570833
0.570833
0.570833
0.570833
0.562500
0.579167
0.566667
0.570833
0.566667
0.570833
0.566667
0.566667
0.570833
0.566667
0.566667
0.570833
0.570833
0.566667
0.566667
0.570833
0.566667
0.566667
0.562500
0.562500
0.566667
0.562500
0.562500
0.558333
0.550000
0.554167
0.554167
0.554167
0.550000
0.545833
0.554167
0.545833
0.554167
0.554167
0.545833
0.558333
0.537500
0.550000
0.541667
0.558333
0.554167
0.545833
0.541667
0.545833
0.541667
0.545833
0.533333
0.545833
0.537500
0.541667
0.537500
0.529167
0.545833
0.533333
0.545833
0.541667
0.533333
0.550000
0.533333
0.545833
0.541667
0.533333
0.537500
0.550000
0.533333
0.545833
0.537500
0.541667
0.545833
0.533333
0.541667
0.545833
0.541667
0.533333
0.541667
0.545833
0.533333
0.545833
0.537500
0.541667
0.541667
0.533333
0.545833
0.529167
0.545833
0.541667
0.516667
0.558333
0.537500
0.541667
0.533333
0.537500
0.537500
0.537500
0.095833
0.437500
0.533333
0.637500
0.433333
0.525000
0.537500
0.520833
0.545833
0.529167
0.537500
0.529167
0.541667
0.525000
0.537500
0.529167
0.529167
0.533333
0.520833
0.533333
0.529167
0.520833
0.533333
0.533333
0.529167
0.533333
0.533333
0.533333
0.537500
0.525000
0.537500
0.537500
0.525000
0.541667
0.529167
0.541667
0.525000
0.541667
0.529167
0.537500
0.533333
0.537500
0.533333
0.541667
0.533333
0.541667
0.541667
0.525000
0.545833
0.529167
0.541667
0.537500
0.533333
0.541667
0.533333
0.541667
0.525000
0.350000
0.200000
0.529167
0.283333
0.245833
0.287500
0.250000
0.537500
0.533333
0.541667
0.533333
0.533333
0.533333
0.525000
0.529167
0.533333
0.529167
0.533333
0.525000
0.533333
0.529167
0.537500
0.525000
0.537500
0.525000
0.537500
0.525000
0.533333
0.533333
0.525000
0.537500
0.525000
0.537500
0.520833
0.533333
0.529167
0.295833
0.387500
0.379167
0.529167
0.616667
0.425000
0.512500
0.633333
0.420833
0.291667
0.745833
0.516667
0.529167
0.512500
0.525000
0.520833
0.295833
0.216667
0.512500
0.529167
0.525000
0.512500
0.525000
0.520833
0.516667
0.525000
0.520833
0.529167
0.516667
0.529167
0.520833
0.516667
0.520833
0.633333
0.416667
0.525000
0.533333
0.625000
0.412500
0.529167
0.520833
0.458333
0.066667
0.520833
0.520833
0.516667
0.525000
0.508333
0.512500
0.595833
0.433333
0.516667
0.516667
0.516667
0.516667
0.516667
0.516667
0.512500
0.516667
0.516667
0.512500
0.520833
0.516667
0.512500
0.525000
0.520833
0.516667
0.525000
0.520833
0.525000
0.525000
0.516667
0.529167
0.516667
0.525000
0.520833
0.529167
0.529167
0.520833
0.529167
0.525000
0.525000
0.520833
0.520833
0.533333
0.525000
0.529167
0.529167
0.529167
0.533333
0.520833
0.533333
0.525000
0.529167
0.533333
0.520833
0.529167
0.533333
0.520833
0.529167
0.529167
0.525000
0.537500
0.520833
0.537500
0.520833
0.533333
0.525000
0.525000
0.533333
0.525000
0.533333
0.529167
0.529167
0.533333
0.520833
0.533333
0.525000
0.533333
0.525000
0.533333
0.525000
0.537500
0.525000
0.520833
0.533333
0.525000
0.529167
0.525000
0.516667
0.533333
0.520833
0.525000
0.533333
0.625000
0.425000
0.533333
0.516667
0.525000
0.316667
0.729167
0.525000
0.529167
0.525000
0.525000
0.529167
0.525000
0.525000
0.529167
0.516667
0.533333
0.529167
0.533333
0.516667
0.275000
0.245833
0.516667
0.504167
0.533333
0.625000
0.404167
0.529167
0.600000
0.433333
1.025000
0.516667
0.483333
0.541667
0.362500
0.158333
1.037500
0.516667
0.512500
0.283333
0.241667
0.516667
0.520833
0.625000
0.408333
0.520833
0.520833
0.512500
1.033333
0.625000
0.408333
0.512500
0.512500
0.520833
0.512500
0.520833
0.504167
0.350000
0.175000
0.512500
0.512500
0.516667
0.516667
0.512500
0.512500
0.512500
0.512500
0.512500
0.512500
0.512500
0.508333
0.512500
0.508333
0.512500
0.508333
0.516667
0.512500
0.508333
0.512500
0.508333
0.625000
0.162500
0.233333
0.525000
0.504167
0.512500
0.512500
0.508333
0.508333
0.508333
0.512500
0.508333
0.508333
0.508333
0.508333
0.508333
0.504167
0.508333
0.508333
0.504167
0.495833
0.516667
0.504167
0.504167
0.508333
0.500000
0.500000
0.508333
0.500000
0.508333
0.508333
0.500000
0.508333
0.500000
0.508333
0.504167
0.512500
0.508333
0.508333
0.508333
0.508333
