0.500000
0.491667
0.508333
0.370833
0.625000
0.379167
0.616667
0.500000
0.491667
0.508333
0.375000
0.620833
0.495833
0.495833
0.508333
0.487500
0.512500
0.487500
0.504167
0.500000
0.491667
0.512500
0.483333
0.512500
0.495833
0.495833
0.508333
0.483333
0.512500
0.370833
0.625000
0.500000
0.491667
0.508333
0.366667
0.633333
0.375000
0.612500
0.508333
0.483333
0.520833
0.362500
0.620833
0.508333
0.479167
0.520833
0.358333
0.629167
0.504167
0.479167
0.525000
0.354167
0.629167
0.504167
0.479167
0.525000
0.354167
0.629167
0.504167
0.479167
0.525000
0.354167
0.625000
0.512500
0.470833
0.525000
0.362500
0.620833
0.516667
0.350000
0.637500
0.483333
0.504167
0.508333
0.358333
0.637500
0.362500
0.620833
0.512500
0.470833
0.520833
0.366667
0.620833
0.516667
0.466667
0.520833
0.366667
0.620833
0.512500
0.354167
0.637500
0.362500
0.620833
0.508333
0.362500
0.633333
0.362500
0.629167
0.504167
0.362500
0.633333
0.362500
0.629167
0.495833
0.495833
0.508333
0.370833
0.625000
0.495833
0.500000
0.508333
0.483333
0.512500
0.370833
0.620833
0.500000
0.491667
0.512500
0.487500
0.508333
0.495833
0.495833
0.512500
0.479167
0.512500
0.487500
0.504167
0.512500
0.479167
0.512500
0.487500
0.508333
0.504167
0.487500
0.512500
0.362500
0.629167
0.491667
0.500000
0.504167
0.483333
0.512500
0.483333
0.508333
0.387500
0.604167
0.508333
0.366667
0.629167
0.375000
0.612500
0.512500
0.483333
0.512500
0.487500
0.504167
0.500000
0.491667
0.508333
0.366667
0.629167
0.491667
0.500000
0.387500
0.604167
0.512500
0.487500
0.504167
0.387500
0.604167
0.512500
0.483333
0.508333
0.379167
0.612500
0.504167
0.491667
0.508333
0.370833
0.620833
0.379167
0.612500
0.504167
0.375000
0.620833
0.495833
0.500000
0.383333
0.608333
0.508333
0.491667
0.504167
0.495833
0.495833
0.504167
0.487500
0.508333
0.375000
0.616667
0.495833
0.495833
0.508333
0.487500
0.508333
0.487500
0.504167
0.504167
0.487500
0.512500
0.479167
0.508333
0.495833
0.495833
0.504167
0.487500
0.508333
0.487500
0.504167
0.383333
0.608333
0.504167
0.487500
0.508333
0.487500
0.500000
0.500000
0.491667
0.508333
0.370833
0.620833
0.491667
0.500000
0.504167
0.483333
0.508333
0.487500
0.504167
0.387500
0.604167
0.504167
0.370833
0.620833
0.495833
0.379167
0.616667
0.487500
0.391667
0.491667
0.616667
0.495833
0.379167
0.616667
0.495833
0.383333
0.608333
0.500000
0.500000
0.491667
0.500000
0.495833
0.500000
0.495833
0.491667
0.504167
0.491667
0.500000
0.495833
0.379167
0.616667
0.487500
0.504167
0.491667
0.500000
0.495833
0.495833
0.500000
0.491667
0.500000
0.375000
0.616667
0.495833
0.495833
0.500000
0.487500
0.504167
0.487500
0.500000
0.500000
0.375000
0.616667
0.491667
0.500000
0.491667
0.495833
0.495833
0.495833
0.504167
0.487500
0.500000
0.375000
0.616667
0.495833
0.491667
0.504167
0.370833
0.616667
0.491667
0.500000
0.495833
0.491667
0.500000
0.491667
0.500000
0.491667
0.495833
0.379167
0.608333
0.500000
0.495833
0.495833
0.495833
0.491667
0.500000
0.491667
0.500000
0.491667
0.491667
0.500000
0.487500
0.504167
0.487500
0.383333
0.608333
0.491667
0.504167
0.483333
0.504167
0.487500
0.500000
0.500000
0.487500
0.500000
0.370833
0.616667
0.495833
0.495833
0.495833
0.370833
0.616667
0.491667
0.495833
0.495833
0.491667
0.495833
0.487500
0.504167
0.487500
0.495833
0.495833
0.491667
0.500000
0.487500
0.500000
0.487500
0.500000
0.495833
0.491667
0.495833
0.487500
0.500000
0.491667
0.491667
0.495833
0.487500
0.500000
0.487500
0.500000
0.491667
0.491667
0.495833
0.491667
0.500000
0.487500
0.379167
0.608333
0.491667
0.500000
0.487500
0.500000
0.487500
0.495833
0.500000
0.483333
0.500000
0.487500
0.504167
0.491667
0.491667
0.500000
0.479167
0.500000
0.491667
0.495833
0.495833
0.487500
0.495833
0.491667
0.491667
0.495833
0.491667
0.491667
0.495833
0.495833
0.491667
0.491667
0.495833
0.375000
0.612500
0.491667
0.495833
0.491667
0.491667
0.491667
0.495833
0.495833
0.491667
0.495833
0.370833
0.612500
0.491667
0.495833
0.487500
0.495833
0.375000
0.608333
0.495833
0.495833
0.491667
0.491667
0.487500
0.495833
0.491667
0.495833
0.491667
0.491667
0.495833
0.487500
0.495833
0.491667
0.491667
0.495833
0.487500
0.500000
0.487500
0.491667
0.491667
0.495833
0.500000
0.479167
0.500000
0.487500
0.495833
0.500000
0.487500
0.495833
0.483333
0.495833
0.491667
0.495833
0.491667
0.487500
0.491667
0.495833
0.491667
0.491667
0.491667
0.487500
0.495833
0.491667
0.491667
0.491667
0.375000
0.608333
0.487500
0.500000
0.483333
0.495833
0.487500
0.495833
0.495833
0.483333
0.500000
0.479167
0.504167
0.491667
0.487500
0.500000
0.479167
0.495833
0.491667
0.491667
0.491667
0.487500
0.495833
0.487500
0.495833
0.491667
0.491667
0.495833
0.487500
0.491667
0.487500
0.495833
0.491667
0.491667
0.491667
0.491667
0.495833
0.487500
0.495833
0.366667
0.612500
0.487500
0.495833
0.491667
0.487500
0.495833
0.483333
0.504167
0.483333
0.491667
0.491667
0.487500
0.504167
0.479167
0.495833
0.491667
0.491667
0.500000
0.479167
0.500000
0.483333
0.495833
0.500000
0.483333
0.495833
0.483333
0.500000
0.495833
0.483333
0.495833
0.483333
0.500000
0.491667
0.491667
0.491667
0.366667
0.612500
0.370833
0.612500
0.487500
0.491667
0.491667
0.487500
0.495833
0.487500
0.495833
0.366667
0.612500
0.491667
0.491667
0.491667
0.483333
0.495833
0.491667
0.491667
0.491667
0.487500
0.491667
0.483333
0.500000
0.487500
0.491667
0.379167
0.600000
0.495833
0.487500
0.495833
0.487500
0.487500
0.379167
0.600000
0.500000
0.487500
0.491667
0.375000
0.604167
0.495833
0.487500
0.495833
0.483333
0.495833
0.491667
0.491667
0.491667
0.366667
0.616667
0.483333
0.495833
0.487500
0.491667
0.495833
0.483333
0.500000
0.366667
0.612500
0.487500
0.491667
0.500000
0.475000
0.504167
0.479167
0.500000
0.495833
0.483333
0.495833
0.479167
0.500000
0.487500
0.491667
0.495833
0.362500
0.616667
0.366667
0.612500
0.491667
0.483333
0.500000
0.358333
0.620833
0.487500
0.491667
0.495833
0.475000
0.504167
0.483333
0.500000
0.487500
0.483333
0.500000
0.479167
0.504167
0.483333
0.375000
0.612500
0.479167
0.504167
0.475000
0.504167
0.483333
0.491667
0.504167
0.470833
0.508333
0.358333
0.616667
0.495833
0.483333
0.500000
0.354167
0.620833
0.491667
0.487500
0.495833
0.479167
0.500000
0.483333
0.495833
0.491667
0.483333
0.495833
0.479167
0.504167
0.487500
0.491667
0.491667
0.479167
0.495833
0.487500
0.491667
0.495833
0.483333
0.495833
0.479167
0.495833
0.487500
0.491667
0.491667
0.483333
0.495833
0.483333
0.495833
0.491667
0.487500
0.491667
0.362500
0.616667
0.483333
0.495833
0.487500
0.370833
0.608333
0.483333
0.495833
0.483333
0.495833
0.370833
0.604167
0.500000
0.479167
0.500000
0.358333
0.616667
0.491667
0.487500
0.495833
0.358333
0.616667
0.483333
0.495833
0.487500
0.487500
0.491667
0.483333
0.495833
0.483333
0.495833
0.366667
0.604167
0.491667
0.487500
0.495833
0.483333
0.491667
0.487500
0.487500
0.495833
0.483333
0.495833
0.479167
0.500000
0.487500
0.487500
0.495833
0.362500
0.612500
0.483333
0.495833
0.487500
0.487500
0.491667
0.487500
0.495833
0.487500
0.487500
0.491667
0.483333
0.495833
0.483333
0.495833
0.370833
0.604167
0.495833
0.479167
0.504167
0.475000
0.495833
0.491667
0.483333
0.504167
0.470833
0.504167
0.483333
0.495833
0.500000
0.470833
0.504167
0.358333
0.620833
0.491667
0.479167
0.504167
0.354167
0.625000
0.483333
0.491667
0.495833
0.358333
0.616667
0.479167
0.495833
0.491667
0.479167
0.500000
0.475000
0.500000
0.491667
0.487500
0.491667
0.362500
0.616667
0.475000
0.500000
0.483333
0.487500
0.495833
0.479167
0.504167
0.475000
0.495833
0.370833
0.604167
0.495833
0.479167
0.500000
0.362500
0.612500
0.487500
0.487500
0.495833
0.479167
0.495833
0.366667
0.608333
0.491667
0.483333
0.495833
0.475000
0.495833
0.483333
0.491667
0.491667
0.475000
0.500000
0.475000
0.495833
0.366667
0.604167
0.491667
0.475000
0.495833
0.475000
0.500000
0.483333
0.483333
0.491667
0.475000
0.500000
0.362500
0.604167
0.495833
0.354167
0.616667
0.354167
0.612500
0.487500
0.483333
0.495833
0.354167
0.612500
0.483333
0.487500
0.487500
0.475000
0.500000
0.358333
0.612500
0.483333
0.479167
0.500000
0.354167
0.612500
0.362500
0.604167
0.495833
0.354167
0.616667
0.354167
0.608333
0.491667
0.475000
0.500000
0.350000
0.612500
0.375000
0.591667
0.504167
0.345833
0.612500
0.370833
0.595833
0.500000
0.350000
0.612500
0.366667
0.600000
0.495833
0.466667
0.500000
0.358333
0.608333
0.491667
0.475000
0.495833
0.354167
0.612500
0.487500
0.479167
0.495833
0.470833
0.495833
0.479167
0.491667
0.487500
0.358333
0.612500
0.470833
0.500000
0.479167
0.483333
0.495833
0.470833
0.500000
0.358333
0.608333
0.491667
0.470833
0.500000
0.354167
0.608333
0.491667
0.475000
0.500000
0.354167
0.608333
0.375000
0.595833
0.491667
0.358333
0.612500
0.483333
0.487500
0.487500
0.362500
0.612500
0.362500
0.612500
0.483333
0.483333
0.495833
0.475000
0.500000
0.479167
0.491667
0.491667
0.475000
0.500000
0.362500
0.612500
0.366667
0.608333
0.491667
0.483333
0.491667
0.483333
0.495833
0.487500
0.487500
0.495833
0.479167
0.495833
0.366667
0.608333
0.487500
0.487500
0.491667
0.483333
0.495833
0.479167
0.495833
0.487500
0.487500
0.491667
0.483333
0.495833
0.483333
0.491667
0.491667
0.487500
0.491667
0.483333
0.495833
0.483333
0.491667
0.491667
0.487500
0.495833
0.366667
0.608333
0.487500
0.487500
0.491667
0.370833
0.608333
0.483333
0.491667
0.491667
0.487500
0.491667
0.487500
0.491667
0.487500
0.491667
0.487500
0.487500
0.491667
0.487500
0.491667
0.487500
0.491667
0.370833
0.604167
0.491667
0.487500
0.491667
0.487500
0.495833
0.487500
0.487500
0.491667
0.483333
0.500000
0.483333
0.491667
0.491667
0.487500
0.491667
0.487500
0.495833
0.483333
0.491667
0.379167
0.604167
0.491667
0.370833
0.604167
0.491667
0.487500
0.495833
0.370833
0.604167
0.491667
0.487500
0.495833
0.483333
0.491667
0.487500
0.487500
0.495833
0.370833
0.608333
0.483333
0.491667
0.491667
0.487500
0.491667
0.370833
0.608333
0.491667
0.491667
0.487500
0.487500
0.491667
0.483333
0.495833
0.370833
0.604167
0.491667
0.487500
0.491667
0.370833
0.604167
0.491667
0.487500
0.491667
0.487500
0.491667
0.491667
0.491667
0.487500
0.375000
0.604167
0.491667
0.487500
0.491667
0.487500
0.487500
0.491667
0.487500
0.491667
0.487500
0.487500
0.491667
0.487500
0.491667
0.483333
0.495833
0.487500
0.487500
0.487500
0.491667
0.491667
0.491667
0.487500
0.487500
0.487500
0.491667
0.487500
0.375000
0.604167
0.487500
0.491667
0.487500
0.487500
0.491667
0.487500
0.491667
0.487500
0.487500
0.487500
0.491667
0.487500
0.370833
0.608333
0.487500
0.487500
0.491667
0.487500
0.491667
0.487500
0.487500
0.487500
0.491667
0.487500
0.487500
0.491667
0.370833
0.604167
0.487500
0.491667
0.487500
0.487500
0.487500
0.491667
0.487500
0.487500
0.487500
0.491667
0.487500
0.487500
0.487500
0.491667
0.487500
0.487500
0.491667
0.487500
0.487500
0.487500
0.487500
0.491667
0.370833
0.604167
0.487500
0.487500
0.487500
0.487500
0.491667
0.487500
0.487500
0.487500
0.487500
0.491667
0.487500
0.487500
0.487500
0.487500
0.491667
0.487500
0.487500
0.370833
0.604167
0.483333
0.491667
0.487500
0.487500
0.487500
0.487500
0.491667
0.487500
0.487500
0.483333
0.491667
0.487500
0.491667
0.483333
0.487500
0.491667
0.483333
0.491667
0.483333
0.487500
0.491667
0.487500
0.487500
0.487500
0.487500
0.491667
0.487500
0.487500
0.487500
0.487500
0.491667
0.483333
0.487500
0.487500
0.487500
0.491667
0.483333
0.491667
0.487500
0.483333
0.491667
0.487500
0.487500
0.487500
0.483333
0.491667
0.483333
0.491667
0.487500
0.483333
0.491667
0.487500
0.487500
0.375000
0.483333
0.604167
0.487500
0.487500
0.487500
0.487500
0.487500
0.487500
0.487500
0.375000
0.600000
0.487500
0.487500
0.487500
