0.500000
0.500000
0.504167
0.500000
0.504167
0.500000
0.504167
0.500000
0.504167
0.500000
0.495833
0.500000
0.500000
0.500000
0.500000
0.495833
0.500000
0.495833
0.500000
0.500000
0.495833
0.495833
0.504167
0.500000
0.500000
0.495833
0.500000
0.495833
0.495833
0.500000
0.495833
0.495833
0.500000
0.500000
0.500000
0.495833
0.504167
0.500000
0.504167
0.500000
0.500000
0.491667
0.491667
0.491667
0.491667
0.491667
0.491667
0.491667
0.495833
0.491667
0.491667
0.491667
0.491667
0.491667
0.491667
0.487500
0.495833
0.491667
0.491667
0.491667
0.495833
0.487500
0.491667
0.491667
0.495833
0.491667
0.491667
0.495833
0.491667
0.491667
0.491667
0.495833
0.491667
0.491667
0.491667
0.491667
0.491667
0.487500
0.491667
0.491667
0.495833
0.495833
0.491667
0.495833
0.495833
0.491667
0.495833
0.491667
0.495833
0.491667
0.495833
0.495833
0.500000
0.495833
0.495833
0.495833
0.491667
0.495833
0.495833
0.495833
0.495833
0.495833
0.495833
0.495833
0.495833
0.491667
0.495833
0.491667
0.491667
0.495833
0.495833
0.491667
0.491667
0.487500
0.495833
0.487500
0.487500
0.491667
0.487500
0.483333
0.487500
0.487500
0.491667
0.491667
0.487500
0.487500
0.495833
0.491667
0.495833
0.487500
0.487500
0.491667
0.487500
0.495833
0.491667
0.491667
0.491667
0.491667
0.491667
0.495833
0.495833
0.495833
0.491667
0.491667
0.500000
0.495833
0.500000
0.495833
0.495833
0.495833
0.504167
0.500000
0.500000
0.500000
0.500000
0.500000
0.500000
0.508333
0.500000
0.504167
0.500000
0.500000
0.504167
0.500000
0.504167
0.500000
0.500000
0.504167
0.508333
0.504167
0.500000
0.500000
0.504167
0.504167
0.500000
0.504167
0.500000
0.500000
0.500000
0.504167
0.504167
0.508333
0.508333
0.500000
0.508333
0.504167
0.504167
0.500000
0.500000
0.500000
0.504167
0.500000
0.495833
0.500000
0.495833
0.495833
0.495833
0.495833
0.495833
0.495833
0.500000
0.495833
0.495833
0.495833
0.495833
0.504167
0.500000
0.495833
0.500000
0.495833
0.500000
0.500000
0.504167
0.504167
0.504167
0.500000
0.504167
0.504167
0.508333
0.504167
0.500000
0.500000
0.500000
0.504167
0.500000
0.504167
0.504167
0.504167
0.500000
0.495833
0.500000
0.495833
0.495833
0.500000
0.495833
0.504167
0.495833
0.500000
0.495833
0.500000
0.504167
0.500000
0.495833
0.495833
0.500000
0.495833
0.500000
0.495833
0.500000
0.500000
0.495833
0.500000
0.495833
0.500000
0.500000
0.495833
0.495833
0.495833
0.495833
0.495833
0.495833
0.500000
0.495833
0.500000
0.487500
0.500000
0.500000
0.500000
0.500000
0.500000
0.504167
0.500000
0.495833
0.495833
0.500000
0.504167
0.500000
0.495833
0.500000
0.500000
0.500000
0.500000
0.495833
0.500000
0.491667
0.500000
0.495833
0.500000
0.500000
0.495833
0.500000
0.500000
0.500000
0.495833
0.495833
0.495833
0.500000
0.495833
0.500000
0.500000
0.495833
0.379167
0.625000
0.512500
0.508333
0.504167
0.504167
0.500000
0.500000
0.495833
0.500000
0.495833
0.495833
0.491667
0.491667
0.495833
0.491667
0.487500
0.491667
0.495833
0.495833
0.495833
0.491667
0.495833
0.495833
0.491667
0.495833
0.495833
0.495833
0.500000
0.495833
0.495833
0.495833
0.504167
0.500000
0.495833
0.495833
0.500000
0.500000
0.500000
0.495833
0.500000
0.495833
0.500000
0.495833
0.495833
0.495833
0.495833
0.500000
0.504167
0.500000
0.500000
0.500000
0.500000
0.500000
0.504167
0.495833
0.500000
0.500000
0.504167
0.504167
0.504167
0.500000
0.504167
0.504167
0.491667
0.504167
0.495833
0.500000
0.495833
0.504167
0.495833
0.500000
0.500000
0.500000
0.495833
0.491667
0.495833
0.491667
0.491667
0.491667
0.491667
0.491667
0.491667
0.491667
0.495833
0.487500
0.495833
0.491667
0.495833
0.983333
0.495833
0.500000
0.495833
0.495833
0.495833
0.500000
0.500000
0.500000
0.495833
0.495833
0.500000
0.495833
0.500000
0.491667
0.500000
0.500000
0.500000
0.500000
0.500000
0.495833
0.500000
0.500000
0.500000
0.495833
0.500000
0.495833
0.495833
0.487500
0.504167
0.495833
0.495833
0.491667
0.495833
0.495833
0.495833
0.491667
0.491667
0.500000
0.495833
0.500000
0.491667
0.500000
0.500000
0.495833
0.495833
0.495833
0.504167
0.495833
0.495833
0.491667
0.495833
0.495833
0.495833
0.495833
0.495833
0.500000
0.495833
0.500000
0.491667
0.495833
0.491667
0.500000
0.495833
0.491667
0.495833
0.491667
0.491667
0.491667
0.491667
0.495833
0.491667
0.495833
0.491667
0.495833
0.495833
0.991667
0.500000
0.500000
0.495833
0.500000
0.504167
0.495833
0.500000
0.500000
1.000000
0.495833
0.495833
0.500000
0.500000
0.500000
0.500000
0.500000
0.504167
0.504167
0.504167
0.500000
0.500000
0.500000
0.504167
0.500000
0.495833
0.495833
0.495833
0.500000
0.491667
0.495833
0.491667
0.491667
0.495833
0.495833
0.495833
0.495833
0.491667
0.491667
0.491667
0.491667
0.491667
0.491667
0.487500
0.487500
0.487500
0.491667
0.483333
0.491667
0.491667
0.487500
0.491667
0.487500
0.487500
0.491667
0.491667
0.495833
0.487500
0.491667
0.491667
0.491667
0.491667
0.491667
0.495833
0.491667
0.491667
0.495833
0.495833
0.491667
0.495833
0.491667
0.500000
0.491667
0.500000
0.491667
0.495833
0.495833
0.500000
0.495833
0.500000
0.495833
0.495833
0.991667
0.495833
0.495833
0.491667
0.491667
0.491667
0.500000
0.491667
0.495833
0.500000
0.495833
0.495833
0.491667
0.491667
0.495833
0.491667
0.491667
0.487500
0.491667
0.491667
0.487500
0.975000
0.491667
0.487500
0.487500
0.491667
0.495833
0.491667
0.495833
0.495833
0.495833
0.491667
0.495833
0.487500
0.491667
0.487500
0.487500
0.495833
0.487500
0.487500
0.491667
0.491667
0.491667
0.495833
0.491667
0.487500
0.491667
0.495833
0.491667
0.495833
0.491667
0.500000
0.491667
0.487500
0.491667
0.500000
0.491667
0.495833
0.491667
0.495833
0.495833
0.491667
0.495833
0.495833
0.491667
0.495833
0.491667
0.487500
0.345833
0.633333
0.504167
0.491667
0.500000
0.495833
0.495833
0.500000
0.487500
0.495833
0.491667
0.495833
0.491667
0.495833
0.495833
0.491667
0.495833
0.491667
0.495833
0.495833
0.495833
0.495833
0.491667
0.491667
0.500000
0.495833
0.495833
0.500000
0.500000
0.495833
0.500000
0.495833
0.495833
0.495833
0.500000
0.491667
0.495833
0.491667
0.495833
0.500000
0.495833
0.500000
0.491667
0.495833
0.495833
0.495833
0.500000
0.500000
0.495833
0.500000
0.500000
0.500000
0.500000
0.500000
0.500000
0.500000
0.500000
0.500000
0.495833
0.495833
0.495833
0.495833
0.491667
0.987500
0.500000
0.491667
0.500000
0.495833
0.495833
0.495833
0.500000
0.491667
0.500000
0.495833
0.500000
0.504167
0.504167
0.504167
0.500000
0.500000
0.495833
0.500000
0.500000
0.495833
0.500000
1.008333
0.508333
0.795833
0.204167
0.500000
0.504167
0.491667
0.500000
0.995833
0.500000
0.504167
0.504167
0.500000
0.500000
0.504167
0.500000
0.500000
0.495833
0.491667
0.495833
0.983333
0.495833
0.495833
0.491667
0.495833
0.500000
0.495833
0.500000
0.495833
0.495833
0.495833
0.500000
0.500000
0.495833
0.500000
0.495833
0.500000
0.495833
0.495833
0.495833
0.495833
0.500000
0.495833
0.495833
0.495833
1.000000
0.495833
0.495833
0.495833
0.500000
0.495833
0.495833
0.495833
0.491667
0.491667
0.495833
0.495833
0.491667
0.495833
0.495833
0.495833
0.495833
0.995833
0.495833
0.495833
0.495833
0.495833
0.495833
0.491667
0.500000
0.495833
0.500000
0.500000
0.495833
0.500000
0.495833
0.500000
0.495833
0.500000
0.495833
0.504167
0.500000
0.508333
0.504167
0.500000
0.504167
0.500000
0.500000
0.500000
0.500000
1.008333
0.500000
0.508333
0.500000
0.504167
0.495833
0.500000
0.500000
0.495833
0.495833
0.500000
0.495833
0.491667
0.495833
0.500000
0.495833
0.500000
0.987500
0.495833
0.495833
0.495833
0.500000
0.500000
0.500000
0.500000
0.491667
0.500000
0.500000
0.495833
0.495833
0.500000
0.500000
0.504167
0.500000
0.500000
0.500000
0.500000
0.500000
0.491667
0.495833
0.495833
0.495833
0.495833
0.495833
0.495833
0.491667
0.500000
0.495833
0.495833
0.495833
0.495833
0.500000
0.495833
0.500000
0.491667
0.500000
0.495833
0.491667
0.500000
0.495833
0.495833
0.491667
0.500000
0.500000
0.495833
0.500000
0.500000
0.495833
0.500000
0.500000
0.504167
0.500000
0.504167
0.504167
0.504167
0.504167
0.508333
0.508333
0.500000
0.508333
0.500000
0.508333
0.508333
0.500000
0.504167
0.504167
0.508333
0.504167
0.504167
0.508333
0.500000
0.508333
0.504167
0.512500
0.504167
0.504167
0.508333
0.508333
0.504167
0.508333
0.500000
0.504167
0.500000
0.500000
0.500000
1.000000
0.500000
0.500000
0.491667
0.504167
0.495833
0.500000
0.500000
0.500000
0.500000
0.500000
0.500000
0.504167
0.504167
0.495833
0.404167
0.437500
0.662500
0.500000
0.500000
0.504167
0.500000
0.500000
0.500000
0.500000
0.500000
0.495833
0.504167
1.000000
0.504167
0.504167
0.508333
0.508333
0.508333
0.508333
0.500000
0.508333
0.504167
0.504167
0.500000
0.495833
0.500000
0.504167
0.504167
0.500000
1.004167
0.495833
0.500000
0.500000
0.500000
0.500000
0.500000
0.504167
0.500000
0.500000
0.500000
0.508333
0.495833
0.504167
0.495833
0.500000
0.500000
0.495833
0.500000
0.500000
0.495833
0.500000
0.495833
0.495833
0.491667
1.004167
0.500000
0.495833
0.500000
0.500000
0.500000
0.500000
0.495833
0.450000
0.533333
0.504167
0.500000
0.500000
0.500000
0.504167
0.504167
1.004167
0.508333
0.500000
0.500000
0.500000
0.495833
0.500000
0.995833
0.495833
0.508333
0.500000
0.504167
0.504167
0.500000
0.504167
0.500000
0.500000
0.504167
0.500000
0.504167
0.504167
0.500000
0.495833
0.504167
0.500000
1.012500
0.504167
0.504167
0.500000
0.512500
0.508333
0.504167
0.512500
0.512500
0.508333
0.512500
0.512500
1.016667
0.508333
0.504167
0.504167
0.504167
0.500000
0.504167
0.508333
0.504167
0.504167
1.008333
0.508333
0.508333
0.504167
0.504167
0.508333
0.508333
0.508333
0.512500
0.504167
0.508333
0.504167
0.508333
0.508333
0.504167
0.470833
0.533333
0.516667
0.508333
0.508333
0.504167
0.508333
0.516667
0.508333
0.508333
0.508333
0.508333
0.508333
0.516667
0.520833
0.512500
0.512500
0.512500
0.512500
0.512500
0.508333
0.508333
0.512500
0.512500
0.508333
0.508333
0.508333
0.504167
0.508333
0.508333
0.508333
0.504167
0.512500
0.512500
0.500000
0.504167
0.504167
0.500000
0.500000
0.683333
0.316667
0.500000
0.500000
0.500000
0.495833
0.504167
0.500000
0.504167
0.504167
0.504167
0.495833
0.504167
1.016667
0.500000
0.508333
0.504167
0.500000
0.508333
0.091667
0.408333
0.504167
0.500000
0.500000
0.504167
0.500000
0.504167
0.504167
0.495833
0.500000
0.500000
0.504167
0.500000
0.500000
0.500000
0.500000
1.000000
0.508333
0.504167
0.500000
0.504167
0.512500
0.516667
0.508333
0.508333
0.512500
0.512500
0.508333
0.504167
0.504167
0.504167
0.508333
0.508333
0.508333
0.508333
0.512500
0.500000
0.508333
0.508333
0.508333
0.512500
0.508333
0.504167
0.500000
0.512500
0.512500
0.508333
0.504167
0.512500
0.512500
0.508333
0.508333
0.508333
0.504167
0.508333
0.508333
0.500000
0.508333
0.504167
0.508333
0.508333
0.504167
0.500000
0.512500
0.508333
0.516667
0.508333
0.504167
0.512500
0.512500
0.516667
0.516667
0.512500
0.516667
0.516667
0.516667
0.504167
0.516667
0.508333
0.516667
0.287500
0.225000
0.516667
0.516667
0.512500
0.512500
0.508333
0.512500
0.504167
0.508333
0.508333
0.504167
0.504167
0.508333
0.508333
0.500000
0.508333
0.508333
0.512500
0.508333
0.512500
0.508333
0.508333
0.512500
0.508333
0.508333
0.508333
0.504167
0.512500
0.520833
1.033333
0.520833
0.516667
0.516667
0.512500
0.516667
0.512500
0.520833
0.512500
0.512500
0.512500
0.512500
0.512500
0.512500
