0.550000
0.558333
0.550000
0.554167
0.558333
0.554167
0.558333
0.558333
0.558333
0.550000
0.754167
0.345833
0.550000
0.550000
0.554167
0.458333
0.558333
0.604167
0.600000
0.587500
0.554167
0.558333
0.554167
0.554167
0.541667
0.545833
0.587500
0.554167
0.554167
0.558333
0.558333
0.558333
0.558333
0.558333
0.554167
0.558333
0.554167
0.558333
0.554167
0.554167
0.554167
0.558333
0.554167
0.558333
0.562500
0.554167
0.550000
0.545833
0.550000
0.550000
0.583333
0.566667
0.558333
0.562500
0.558333
0.558333
0.558333
0.558333
0.562500
0.562500
0.566667
0.562500
0.558333
0.566667
1.129167
0.533333
0.545833
0.591667
0.566667
0.558333
0.558333
0.558333
0.562500
0.558333
0.558333
0.558333
0.562500
0.558333
0.558333
0.558333
0.562500
0.562500
0.558333
0.558333
0.562500
0.558333
0.562500
0.554167
0.554167
0.554167
0.550000
0.508333
0.275000
0.308333
0.600000
0.587500
0.562500
0.558333
0.562500
0.562500
0.558333
0.554167
0.541667
0.550000
0.583333
0.554167
0.554167
0.558333
0.558333
0.558333
0.562500
0.562500
0.558333
0.558333
0.558333
0.558333
0.420833
0.695833
0.558333
0.554167
0.558333
0.562500
0.558333
0.550000
0.545833
0.541667
0.591667
0.575000
0.562500
0.562500
0.562500
0.554167
0.562500
0.558333
0.558333
0.558333
0.562500
0.558333
0.562500
0.562500
0.550000
0.545833
0.575000
0.587500
0.566667
0.558333
0.562500
0.566667
0.562500
0.566667
0.562500
0.562500
0.558333
0.562500
0.558333
0.562500
0.550000
0.550000
0.545833
0.587500
0.575000
0.562500
0.562500
0.562500
0.562500
0.558333
0.562500
0.562500
0.562500
0.558333
0.566667
0.562500
0.566667
0.554167
0.545833
0.583333
0.575000
0.562500
0.566667
0.562500
0.558333
0.558333
0.566667
0.562500
0.562500
0.562500
0.566667
0.562500
0.562500
0.541667
0.550000
0.579167
0.595833
0.562500
0.562500
0.566667
0.562500
0.562500
0.562500
0.645833
0.654167
0.475000
0.475000
0.566667
0.558333
0.562500
0.558333
0.550000
0.558333
0.550000
0.587500
0.558333
0.583333
0.566667
0.562500
0.562500
0.566667
0.562500
0.562500
0.562500
0.562500
0.566667
0.562500
0.570833
0.562500
0.550000
0.550000
0.550000
0.583333
0.600000
0.566667
0.558333
0.566667
0.566667
0.562500
0.566667
0.558333
0.562500
0.566667
0.566667
0.562500
0.562500
0.566667
0.562500
0.550000
0.554167
0.550000
0.587500
0.575000
0.562500
0.562500
0.562500
0.566667
0.562500
0.562500
0.558333
0.566667
0.566667
0.558333
0.566667
0.566667
0.562500
0.566667
0.554167
0.550000
0.554167
0.587500
0.575000
0.566667
0.570833
0.562500
0.570833
0.570833
0.570833
0.566667
0.566667
0.566667
0.570833
0.570833
0.554167
0.562500
0.554167
0.554167
0.558333
0.587500
0.604167
0.570833
0.570833
0.562500
0.570833
0.566667
0.566667
0.566667
0.562500
0.570833
0.566667
0.562500
0.566667
0.554167
0.550000
0.470833
0.470833
0.204167
0.587500
0.566667
0.570833
0.570833
0.566667
0.566667
0.566667
0.570833
0.562500
0.566667
0.562500
0.562500
0.562500
0.558333
0.541667
0.558333
0.520833
0.575000
0.600000
0.570833
0.562500
0.558333
0.558333
0.562500
0.558333
0.558333
0.562500
0.558333
0.562500
0.562500
0.558333
0.566667
0.562500
0.558333
0.550000
0.550000
0.587500
0.583333
0.562500
0.562500
0.566667
0.566667
0.562500
0.562500
0.562500
0.566667
0.562500
0.562500
0.562500
0.566667
0.562500
0.562500
0.562500
0.545833
0.550000
0.583333
0.583333
0.562500
0.566667
0.562500
0.562500
0.562500
0.566667
0.562500
0.566667
0.558333
0.566667
0.566667
0.558333
0.566667
0.566667
0.562500
0.554167
0.545833
0.583333
0.579167
0.566667
0.566667
0.566667
0.558333
0.566667
0.566667
0.558333
0.566667
0.562500
0.562500
0.566667
0.566667
0.554167
0.566667
0.562500
0.550000
0.545833
0.587500
0.566667
0.558333
0.562500
0.558333
0.383333
0.737500
0.558333
0.562500
0.562500
0.562500
0.533333
0.587500
0.566667
0.558333
0.379167
0.741667
0.562500
0.550000
0.545833
0.587500
0.570833
0.566667
0.566667
0.558333
0.566667
0.566667
0.566667
0.566667
0.562500
0.566667
0.566667
0.566667
0.566667
0.566667
0.566667
0.562500
0.570833
0.566667
0.570833
0.562500
0.554167
0.554167
0.583333
0.583333
0.566667
0.566667
0.570833
0.566667
0.566667
0.566667
0.570833
0.562500
0.570833
0.562500
0.566667
0.566667
0.566667
0.566667
0.558333
0.554167
0.554167
0.891667
0.845833
0.562500
0.570833
0.570833
0.566667
0.566667
0.566667
0.570833
0.562500
0.570833
0.562500
0.566667
0.562500
0.566667
0.562500
0.562500
0.562500
0.562500
0.562500
0.558333
0.554167
0.558333
0.554167
0.591667
0.570833
0.566667
0.562500
0.566667
0.562500
0.566667
0.566667
0.566667
0.566667
0.566667
0.570833
0.562500
0.562500
0.566667
0.566667
0.566667
0.562500
0.562500
0.558333
0.558333
0.554167
0.587500
0.575000
0.566667
0.570833
0.566667
0.566667
0.570833
0.566667
0.566667
0.566667
0.566667
0.566667
0.570833
0.562500
0.554167
0.554167
0.587500
0.579167
0.566667
0.562500
0.566667
0.566667
0.562500
0.566667
0.562500
0.566667
0.562500
0.562500
0.562500
0.562500
0.562500
0.562500
0.558333
0.562500
0.558333
0.562500
0.558333
0.562500
0.558333
0.550000
0.550000
0.583333
0.575000
0.562500
0.562500
0.562500
0.562500
0.566667
0.562500
0.558333
0.562500
0.562500
0.562500
0.554167
0.562500
0.558333
0.562500
0.558333
0.562500
0.562500
0.558333
0.558333
0.554167
0.554167
0.550000
0.587500
0.554167
0.508333
0.612500
0.566667
0.562500
0.562500
0.562500
0.566667
0.566667
0.562500
0.566667
0.566667
0.566667
0.566667
0.566667
0.566667
0.570833
0.562500
0.570833
0.566667
0.570833
0.562500
0.570833
0.566667
0.570833
0.566667
0.570833
0.566667
0.570833
0.570833
0.570833
0.570833
0.566667
0.570833
0.575000
0.575000
0.570833
0.570833
0.575000
0.570833
0.575000
0.575000
0.570833
0.570833
0.562500
0.562500
0.600000
0.579167
0.575000
0.575000
0.575000
0.575000
0.575000
0.575000
0.579167
0.575000
0.579167
0.575000
0.575000
0.579167
0.575000
0.566667
0.562500
0.570833
0.566667
0.600000
0.600000
0.520833
0.275000
0.279167
0.208333
0.204167
0.458333
0.495833
0.245833
0.241667
0.583333
0.262500
0.512500
0.891667
0.583333
0.570833
0.579167
0.575000
0.575000
0.587500
0.566667
0.575000
0.575000
0.566667
0.504167
0.633333
0.479167
0.700000
0.579167
0.579167
0.579167
0.579167
0.579167
0.579167
0.579167
0.579167
0.579167
0.583333
0.587500
0.583333
0.579167
0.579167
0.579167
0.579167
0.550000
0.058333
0.554167
0.575000
0.583333
0.583333
0.575000
0.566667
0.575000
0.579167
0.579167
0.575000
0.529167
0.604167
0.625000
0.625000
0.579167
0.316667
0.266667
0.587500
0.583333
0.587500
0.583333
0.583333
0.587500
0.579167
0.583333
0.583333
0.583333
0.579167
0.579167
0.583333
0.579167
0.583333
0.566667
0.570833
0.608333
0.583333
0.583333
0.712500
0.454167
0.300000
0.858333
0.587500
0.441667
0.341667
0.391667
0.583333
0.587500
0.587500
0.587500
0.587500
0.583333
0.583333
0.583333
0.587500
0.570833
0.629167
1.095833
0.579167
0.612500
0.587500
0.583333
0.583333
0.587500
0.583333
0.583333
0.579167
0.641667
0.337500
0.762500
0.608333
0.425000
0.712500
0.583333
0.579167
0.591667
0.570833
0.583333
0.583333
0.579167
0.579167
0.587500
0.579167
0.308333
0.320833
0.425000
0.550000
0.720833
0.579167
0.579167
0.579167
0.583333
0.579167
0.250000
0.912500
1.508333
0.212500
0.608333
0.533333
0.295833
0.916667
0.670833
0.433333
0.616667
0.275000
0.304167
0.579167
0.229167
0.387500
0.216667
0.479167
0.341667
0.487500
0.420833
0.108333
0.445833
0.204167
0.225000
0.370833
0.729167
0.766667
0.345833
0.116667
0.645833
0.454167
0.354167
0.220833
0.291667
0.595833
0.512500
0.312500
0.154167
0.520833
0.579167
0.591667
0.275000
0.466667
0.391667
0.550000
0.416667
0.412500
0.537500
0.391667
1.154167
0.579167
0.550000
0.608333
0.604167
0.579167
0.579167
0.579167
0.579167
0.575000
0.579167
0.579167
0.575000
0.579167
0.575000
0.579167
0.579167
0.579167
0.579167
0.575000
0.579167
0.583333
0.579167
0.579167
0.579167
0.583333
0.583333
0.583333
0.579167
0.495833
0.658333
0.583333
0.583333
0.579167
0.583333
0.587500
0.583333
0.583333
0.579167
0.583333
0.587500
0.583333
0.579167
0.575000
0.579167
0.583333
0.575000
0.575000
0.579167
0.579167
0.579167
0.575000
0.575000
0.608333
0.579167
0.579167
0.579167
0.583333
0.575000
0.579167
0.579167
0.583333
0.575000
0.579167
0.579167
0.579167
0.583333
0.583333
0.579167
0.579167
0.583333
0.583333
0.575000
0.579167
0.583333
0.579167
0.625000
0.120833
0.633333
0.525000
0.429167
1.141667
0.575000
0.254167
0.333333
0.566667
0.575000
0.433333
0.904167
0.391667
0.579167
0.575000
0.575000
0.575000
0.583333
0.550000
0.604167
0.575000
0.579167
0.575000
0.579167
0.579167
0.554167
0.608333
0.583333
0.579167
0.583333
0.570833
0.583333
0.579167
0.579167
0.550000
0.608333
0.583333
0.579167
0.583333
0.579167
0.570833
0.570833
0.570833
0.608333
0.595833
0.504167
0.658333
0.583333
0.587500
0.579167
0.587500
0.583333
0.583333
0.579167
0.516667
0.650000
0.587500
0.583333
0.587500
0.579167
0.575000
0.575000
0.491667
0.708333
0.504167
0.670833
0.420833
0.379167
0.558333
0.220833
0.595833
0.162500
1.162500
0.300000
0.225000
0.650000
0.583333
0.591667
0.291667
3.612500
1.041667
1.470833
0.458333
0.962500
0.475000
0.783333
0.450000
0.504167
0.904167
0.525000
1.333333
0.466667
0.433333
0.358333
0.329167
0.370833
0.941667
0.583333
0.583333
0.579167
0.575000
0.583333
0.500000
0.654167
0.579167
0.579167
0.579167
0.583333
0.583333
0.554167
0.675000
0.512500
0.583333
0.583333
0.579167
0.754167
0.083333
0.325000
0.587500
0.562500
0.820833
0.141667
0.366667
0.654167
0.345833
0.237500
0.262500
0.312500
0.495833
0.145833
0.700000
0.241667
0.783333
0.204167
0.770833
0.216667
0.566667
0.141667
0.629167
0.229167
0.483333
0.362500
0.454167
0.433333
0.300000
0.412500
0.675000
0.279167
0.291667
0.200000
0.537500
0.950000
0.304167
0.237500
0.404167
0.208333
0.612500
0.245833
0.620833
0.520833
0.366667
0.487500
0.754167
0.529167
0.616667
0.220833
0.208333
0.262500
0.333333
0.108333
0.254167
0.758333
0.491667
0.204167
0.241667
0.283333
0.362500
0.408333
0.241667
0.512500
0.716667
0.483333
0.437500
0.450000
0.629167
0.383333
0.687500
0.720833
0.820833
0.358333
1.008333
0.795833
0.325000
0.225000
0.375000
0.550000
0.775000
0.958333
1.029167
0.825000
0.254167
0.608333
0.220833
0.750000
0.512500
1.179167
1.491667
1.145833
1.129167
0.791667
0.304167
0.366667
0.591667
0.233333
0.437500
0.387500
0.420833
0.554167
0.462500
