0.566667
0.562500
0.562500
0.562500
0.570833
0.570833
0.562500
0.562500
0.562500
0.566667
0.575000
0.562500
0.562500
0.562500
0.566667
0.566667
0.575000
0.562500
0.562500
0.566667
0.562500
0.566667
0.575000
0.562500
0.558333
0.562500
0.566667
0.566667
0.570833
0.558333
1.125000
0.566667
0.566667
0.562500
0.558333
0.562500
0.562500
0.562500
0.566667
0.562500
0.558333
0.562500
0.562500
0.562500
0.566667
0.558333
0.562500
0.558333
0.558333
0.562500
0.566667
0.558333
0.562500
0.558333
0.562500
0.562500
0.562500
0.400000
0.491667
0.237500
0.562500
0.562500
0.316667
0.250000
0.566667
0.570833
0.562500
0.562500
0.570833
0.570833
0.566667
0.566667
0.566667
0.570833
0.575000
0.566667
0.562500
0.566667
0.570833
0.570833
0.566667
0.558333
0.566667
0.570833
0.566667
0.562500
0.562500
0.562500
0.562500
0.566667
0.558333
0.562500
0.562500
0.566667
0.558333
0.558333
0.562500
0.558333
0.566667
0.566667
0.558333
0.562500
0.558333
0.566667
0.566667
0.562500
0.558333
0.562500
0.562500
0.562500
0.566667
0.570833
0.570833
0.566667
0.570833
0.570833
0.575000
0.570833
0.566667
0.566667
0.575000
0.575000
0.570833
0.566667
0.566667
0.570833
0.570833
0.579167
0.566667
0.566667
0.566667
0.566667
0.570833
0.575000
0.566667
0.562500
0.566667
0.566667
0.570833
0.566667
0.562500
0.562500
0.566667
0.566667
0.570833
0.562500
0.562500
0.562500
0.566667
0.570833
0.562500
0.562500
0.562500
0.562500
0.570833
0.562500
0.562500
0.562500
0.562500
0.562500
0.566667
0.566667
0.566667
0.562500
0.562500
0.562500
0.566667
0.566667
0.562500
0.566667
0.562500
0.566667
0.566667
0.566667
0.566667
0.562500
0.566667
0.566667
0.570833
0.570833
0.566667
0.566667
0.566667
0.575000
0.575000
0.558333
0.570833
0.570833
0.575000
0.566667
0.562500
0.562500
0.570833
0.570833
0.566667
0.558333
0.562500
0.562500
0.575000
0.558333
0.562500
0.562500
0.562500
0.570833
0.562500
0.558333
0.558333
0.562500
0.570833
0.562500
0.562500
0.558333
0.562500
0.566667
0.566667
0.558333
0.562500
0.558333
0.566667
0.566667
0.558333
1.129167
0.558333
0.566667
0.558333
0.558333
0.562500
0.566667
0.566667
0.558333
0.558333
0.558333
0.566667
0.570833
0.558333
0.562500
0.562500
0.562500
0.575000
0.558333
0.562500
0.562500
0.562500
0.562500
0.562500
0.562500
0.562500
0.562500
0.562500
0.562500
0.566667
0.566667
0.566667
0.504167
0.629167
0.566667
0.562500
0.562500
0.566667
0.566667
0.629167
0.433333
0.645833
0.562500
0.566667
0.358333
0.212500
0.575000
0.566667
0.562500
0.529167
0.500000
0.679167
0.562500
0.333333
0.229167
0.562500
0.566667
0.570833
0.562500
0.562500
0.562500
0.562500
0.566667
0.566667
0.562500
0.558333
0.562500
0.562500
0.566667
0.562500
0.233333
0.225000
0.670833
0.583333
0.541667
0.575000
0.562500
0.566667
0.562500
0.570833
0.479167
0.662500
0.533333
0.604167
0.575000
0.583333
0.579167
0.579167
0.579167
0.583333
0.441667
0.683333
0.604167
0.587500
0.437500
0.691667
0.604167
0.587500
0.579167
0.437500
0.529167
0.670833
0.604167
0.583333
0.441667
0.687500
0.600000
0.583333
0.437500
0.666667
0.604167
0.437500
0.666667
0.275000
0.320833
0.579167
0.437500
0.679167
0.595833
0.579167
0.433333
0.679167
0.604167
0.441667
0.633333
0.441667
0.616667
0.683333
0.591667
0.579167
0.433333
0.670833
0.595833
0.433333
0.650000
0.583333
0.570833
0.575000
0.433333
0.650000
0.579167
0.566667
0.429167
0.666667
0.579167
0.562500
0.433333
0.487500
0.754167
0.437500
0.641667
0.579167
0.566667
0.575000
0.562500
0.558333
0.562500
0.562500
0.433333
0.650000
0.575000
0.562500
0.562500
0.433333
0.650000
0.575000
0.558333
0.562500
0.433333
0.650000
0.575000
0.358333
0.204167
0.500000
0.562500
0.625000
0.558333
0.741667
0.379167
0.562500
0.566667
0.558333
0.562500
0.479167
0.645833
1.129167
0.558333
0.562500
0.562500
0.566667
0.570833
0.558333
0.566667
0.562500
0.570833
0.570833
0.562500
0.562500
0.566667
0.570833
0.570833
0.566667
0.562500
0.562500
0.570833
0.570833
0.562500
0.558333
0.562500
0.562500
0.570833
0.562500
0.562500
0.558333
0.562500
0.570833
0.562500
0.558333
0.558333
0.562500
0.570833
0.558333
0.558333
0.562500
0.558333
0.566667
0.566667
0.558333
0.562500
0.562500
0.562500
0.566667
0.562500
0.558333
0.562500
0.558333
0.562500
0.562500
0.562500
0.800000
0.320833
0.558333
0.562500
0.566667
0.558333
0.558333
0.558333
0.562500
0.570833
0.558333
0.558333
0.562500
0.566667
0.566667
0.558333
0.562500
0.566667
0.566667
0.562500
0.558333
0.558333
0.562500
0.570833
0.562500
0.558333
0.558333
0.558333
0.570833
0.558333
0.558333
0.558333
0.562500
0.562500
0.562500
0.558333
0.558333
0.558333
0.558333
0.562500
0.558333
0.558333
0.566667
0.629167
0.579167
0.179167
0.512500
0.904167
0.725000
0.408333
0.562500
0.562500
0.562500
0.566667
0.416667
0.720833
0.562500
0.562500
0.570833
0.570833
0.566667
0.562500
0.566667
0.570833
0.566667
0.562500
0.562500
0.562500
0.570833
0.566667
0.562500
0.558333
0.562500
0.566667
0.566667
0.562500
0.558333
0.562500
0.562500
0.566667
0.562500
0.558333
0.558333
0.562500
0.566667
0.558333
0.558333
0.558333
0.562500
0.566667
0.558333
0.554167
0.558333
0.562500
0.337500
0.229167
0.562500
0.558333
0.520833
0.600000
0.245833
0.233333
0.383333
0.262500
0.241667
0.316667
0.558333
0.558333
0.562500
0.558333
0.562500
0.562500
0.558333
0.562500
0.562500
0.562500
0.566667
0.566667
0.191667
0.666667
0.291667
0.541667
0.570833
0.575000
0.229167
0.341667
0.650000
0.370833
0.687500
0.570833
0.570833
0.575000
0.575000
0.570833
0.566667
0.570833
0.579167
0.566667
0.566667
0.566667
0.570833
0.575000
0.566667
0.562500
0.566667
0.562500
0.570833
0.570833
0.562500
0.562500
0.562500
0.566667
0.570833
0.562500
0.562500
0.566667
0.566667
0.570833
0.562500
0.562500
0.566667
0.570833
0.566667
0.566667
0.562500
0.566667
0.566667
0.575000
0.566667
0.570833
0.566667
0.575000
0.575000
0.570833
0.575000
0.575000
0.579167
0.579167
0.579167
0.583333
0.583333
0.583333
0.591667
0.587500
0.583333
0.587500
0.591667
0.595833
0.537500
0.641667
0.587500
0.595833
0.595833
0.591667
0.591667
0.595833
0.595833
0.591667
0.591667
0.595833
0.600000
0.587500
0.587500
0.583333
0.591667
0.583333
0.579167
0.575000
0.579167
0.437500
0.670833
0.587500
0.570833
0.575000
0.433333
0.662500
0.583333
0.566667
0.341667
0.225000
0.570833
0.195833
0.233333
0.312500
0.341667
0.579167
0.570833
0.566667
0.429167
0.658333
0.579167
0.325000
0.245833
0.558333
0.304167
0.262500
0.570833
0.350000
0.337500
0.437500
0.566667
0.566667
0.562500
0.570833
0.570833
0.566667
0.566667
0.566667
0.566667
0.570833
0.566667
0.570833
0.570833
0.570833
0.270833
0.300000
0.570833
0.570833
0.350000
0.220833
0.350000
0.804167
0.566667
0.570833
0.570833
0.579167
0.566667
0.570833
0.566667
0.575000
0.579167
0.570833
0.566667
0.570833
0.570833
0.575000
0.566667
0.566667
0.566667
0.570833
0.566667
0.566667
0.562500
0.562500
0.570833
0.566667
0.558333
0.562500
0.562500
0.566667
0.566667
0.562500
0.562500
0.558333
0.562500
0.570833
0.558333
0.558333
0.558333
0.562500
0.566667
0.562500
0.558333
0.558333
0.558333
0.566667
0.558333
0.562500
0.558333
0.562500
0.566667
0.558333
0.562500
0.562500
0.558333
0.562500
0.566667
0.562500
0.558333
0.558333
0.562500
0.562500
0.562500
0.358333
0.204167
0.562500
0.562500
0.562500
0.570833
0.562500
0.562500
0.562500
0.570833
0.562500
0.566667
0.562500
0.570833
0.570833
0.562500
0.566667
0.566667
0.570833
0.570833
0.566667
0.562500
0.566667
0.566667
0.570833
0.558333
0.562500
0.562500
0.566667
0.566667
0.558333
0.562500
0.562500
0.562500
0.562500
0.558333
0.558333
0.562500
0.562500
0.566667
0.558333
0.562500
0.562500
0.566667
0.566667
0.408333
0.379167
0.345833
0.325000
0.237500
0.562500
0.283333
0.441667
0.566667
0.408333
0.233333
0.333333
0.566667
0.570833
0.566667
0.562500
0.566667
0.566667
0.570833
0.566667
0.562500
0.570833
0.570833
0.562500
0.562500
0.566667
0.570833
0.566667
0.562500
0.558333
0.412500
0.479167
0.233333
0.562500
0.562500
0.562500
0.558333
0.566667
0.566667
0.562500
0.562500
0.562500
0.783333
0.533333
0.516667
0.425000
0.566667
0.566667
0.575000
0.566667
0.562500
0.566667
0.575000
0.570833
0.566667
0.566667
0.570833
0.575000
0.575000
0.566667
0.570833
0.575000
0.575000
0.575000
0.575000
0.570833
0.575000
0.579167
0.579167
0.575000
0.575000
0.575000
0.579167
0.587500
0.575000
0.579167
0.579167
0.575000
0.579167
0.579167
0.579167
1.283333
0.462500
0.583333
0.583333
0.583333
0.283333
0.308333
0.595833
0.591667
0.587500
0.595833
0.595833
0.437500
0.616667
0.725000
0.604167
0.304167
0.300000
0.595833
0.595833
0.383333
0.808333
0.600000
0.591667
0.591667
0.595833
0.595833
0.595833
0.591667
0.591667
0.441667
0.708333
0.625000
0.604167
0.445833
0.708333
0.629167
0.445833
0.687500
0.620833
0.608333
0.445833
0.675000
0.608333
0.441667
0.687500
0.604167
0.583333
0.433333
0.675000
0.595833
0.441667
0.654167
0.591667
0.575000
0.437500
0.670833
0.587500
0.570833
0.429167
0.666667
0.595833
0.441667
0.654167
0.587500
0.575000
0.579167
0.195833
0.370833
0.570833
0.575000
0.570833
0.570833
0.570833
0.575000
0.570833
0.570833
0.575000
0.566667
0.570833
0.566667
0.570833
0.250000
0.325000
0.566667
0.566667
0.570833
0.570833
0.566667
0.570833
0.570833
0.579167
0.570833
0.566667
0.570833
0.566667
0.579167
0.575000
0.570833
0.570833
0.570833
0.575000
0.575000
0.570833
0.566667
0.566667
0.575000
0.575000
0.570833
0.570833
0.566667
0.570833
0.441667
0.633333
0.600000
0.570833
0.437500
0.670833
0.587500
0.566667
0.437500
0.658333
0.587500
0.433333
0.654167
0.587500
0.570833
0.433333
0.666667
0.587500
0.570833
0.566667
0.437500
0.658333
0.583333
0.458333
0.675000
0.570833
0.570833
0.570833
0.570833
0.054167
0.516667
0.575000
0.237500
0.333333
0.570833
0.570833
0.570833
0.570833
0.579167
0.566667
0.575000
0.575000
0.570833
0.566667
0.566667
0.570833
0.437500
0.658333
0.583333
0.566667
0.437500
0.666667
0.587500
0.566667
0.437500
0.658333
0.591667
0.433333
0.654167
0.587500
0.579167
0.433333
0.658333
0.587500
0.570833
0.570833
0.570833
0.441667
0.654167
0.583333
0.570833
0.566667
0.570833
0.433333
0.654167
0.583333
0.566667
0.570833
0.566667
0.437500
0.650000
0.583333
0.570833
0.237500
0.333333
0.566667
0.570833
0.437500
0.650000
0.583333
0.579167
0.437500
0.645833
0.583333
0.570833
0.433333
0.658333
0.583333
0.570833
0.566667
0.433333
0.666667
0.583333
0.566667
0.437500
0.662500
0.587500
0.566667
0.433333
