0.604167
0.595833
0.587500
0.587500
0.587500
0.583333
0.595833
0.583333
0.612500
0.595833
0.583333
0.600000
0.591667
0.600000
0.595833
0.591667
0.591667
0.591667
0.604167
0.591667
0.591667
0.595833
0.595833
0.600000
0.591667
0.604167
1.241667
0.604167
0.600000
0.604167
0.595833
0.600000
0.583333
0.583333
0.583333
0.579167
0.587500
0.587500
0.591667
0.587500
0.583333
0.587500
0.587500
0.787500
0.383333
0.591667
0.608333
0.600000
0.612500
0.608333
0.625000
0.608333
0.616667
0.612500
0.608333
0.612500
0.612500
0.604167
0.620833
0.608333
0.600000
0.604167
1.229167
0.604167
0.612500
0.612500
0.629167
0.637500
0.608333
0.620833
0.770833
0.704167
0.683333
0.687500
0.658333
0.650000
0.629167
0.604167
0.587500
0.583333
0.587500
0.591667
0.600000
0.595833
0.587500
0.587500
0.600000
0.591667
0.633333
0.629167
0.608333
0.616667
0.620833
0.637500
0.612500
0.633333
0.616667
0.645833
0.633333
0.620833
0.600000
0.604167
0.620833
0.616667
0.600000
0.595833
0.600000
0.591667
0.595833
0.600000
1.183333
0.587500
1.191667
0.591667
0.583333
0.575000
0.575000
0.583333
0.570833
0.579167
0.579167
0.570833
0.579167
0.566667
1.137500
0.575000
0.566667
0.575000
0.575000
0.575000
0.575000
0.570833
0.566667
0.570833
0.570833
0.575000
0.583333
0.570833
0.583333
0.579167
0.587500
0.575000
0.575000
0.570833
0.583333
0.583333
0.583333
0.583333
0.579167
0.587500
0.600000
0.591667
0.595833
0.583333
0.583333
0.583333
0.591667
0.583333
0.583333
0.591667
0.595833
0.583333
0.575000
0.579167
0.583333
0.587500
0.583333
0.575000
0.579167
0.587500
0.600000
0.591667
0.587500
0.579167
0.600000
0.587500
0.604167
1.175000
0.591667
0.591667
0.591667
0.591667
0.583333
0.587500
0.587500
0.591667
0.595833
0.591667
0.587500
0.595833
0.604167
0.591667
0.583333
0.587500
0.591667
0.591667
0.591667
0.587500
0.587500
0.591667
0.604167
0.600000
0.591667
0.595833
0.604167
0.608333
0.600000
0.600000
0.604167
0.591667
0.591667
0.583333
0.579167
0.583333
0.595833
0.591667
0.595833
0.591667
0.595833
0.591667
0.604167
0.616667
0.600000
0.587500
0.591667
0.600000
0.612500
1.191667
0.604167
0.600000
0.604167
0.608333
0.591667
0.595833
0.600000
0.612500
0.616667
0.604167
0.983333
0.241667
0.629167
0.616667
0.604167
0.629167
0.650000
0.633333
0.620833
0.595833
0.612500
0.608333
0.591667
0.600000
0.600000
0.595833
0.604167
0.600000
0.579167
0.587500
0.604167
0.608333
0.591667
0.595833
0.579167
0.595833
0.595833
0.583333
0.583333
0.583333
0.591667
0.595833
0.600000
0.600000
0.583333
0.587500
0.595833
0.587500
0.591667
0.595833
0.600000
0.604167
0.604167
0.604167
0.587500
0.612500
0.604167
0.604167
0.591667
0.600000
0.600000
0.595833
0.587500
0.600000
0.608333
0.612500
0.608333
0.595833
1.195833
0.595833
0.587500
0.583333
0.595833
0.604167
0.604167
0.591667
0.591667
1.195833
0.591667
0.587500
0.583333
0.587500
0.583333
0.583333
0.579167
0.591667
0.591667
0.587500
0.591667
0.591667
0.587500
0.587500
0.600000
0.587500
0.591667
0.595833
0.600000
0.600000
0.591667
0.595833
1.191667
0.600000
0.600000
0.604167
1.220833
0.612500
0.604167
0.604167
0.604167
0.620833
1.245833
1.216667
0.608333
0.920833
0.304167
0.629167
0.645833
0.637500
0.620833
0.620833
0.612500
1.212500
0.604167
0.600000
0.608333
0.604167
0.608333
1.220833
0.608333
0.600000
0.587500
1.191667
1.095833
0.700000
0.620833
0.625000
0.625000
0.625000
0.612500
0.612500
0.604167
1.208333
0.600000
0.600000
0.604167
0.604167
0.612500
0.604167
0.629167
0.625000
0.625000
0.616667
0.612500
0.608333
0.604167
0.225000
0.375000
0.600000
0.787500
0.416667
0.620833
0.600000
0.487500
0.341667
0.279167
0.691667
0.595833
0.295833
0.300000
0.591667
0.529167
0.675000
0.404167
0.204167
0.533333
0.133333
0.708333
1.033333
0.591667
0.583333
0.579167
0.575000
0.566667
0.562500
0.575000
0.591667
0.575000
1.150000
1.137500
0.562500
0.575000
0.579167
0.562500
0.587500
0.304167
0.312500
0.612500
0.604167
0.591667
0.579167
0.570833
0.566667
0.570833
0.566667
0.570833
0.570833
0.570833
0.587500
0.579167
0.575000
0.725000
0.408333
0.570833
0.562500
0.562500
0.554167
0.554167
0.554167
0.550000
0.562500
0.550000
0.550000
0.545833
0.550000
0.550000
0.541667
0.545833
0.537500
0.545833
0.550000
0.566667
0.558333
1.095833
0.537500
0.545833
0.537500
0.545833
0.545833
0.541667
0.554167
0.541667
0.545833
0.541667
0.541667
0.541667
0.541667
0.545833
0.533333
0.537500
0.533333
0.529167
0.283333
0.254167
0.529167
0.533333
0.533333
0.537500
0.537500
0.537500
0.541667
0.541667
0.550000
0.541667
0.545833
0.537500
0.545833
0.550000
0.541667
0.537500
0.537500
0.662500
0.233333
0.175000
0.533333
0.533333
0.537500
0.529167
0.866667
0.208333
0.545833
0.533333
0.545833
0.545833
0.550000
0.550000
0.545833
1.179167
0.233333
0.758333
0.537500
0.550000
0.558333
0.541667
0.541667
0.545833
1.087500
1.087500
0.550000
0.545833
0.545833
1.095833
0.541667
1.079167
1.616667
0.545833
0.541667
0.545833
0.541667
0.554167
0.550000
0.541667
0.800000
0.770833
0.612500
0.658333
0.712500
0.462500
0.595833
0.812500
0.387500
0.595833
0.595833
0.595833
0.591667
0.470833
0.166667
0.687500
0.616667
0.591667
0.575000
0.562500
0.554167
0.545833
0.537500
0.541667
0.533333
0.533333
0.525000
0.525000
0.520833
0.516667
0.516667
0.516667
0.179167
0.841667
0.512500
0.516667
0.520833
0.520833
0.525000
0.258333
0.275000
0.550000
0.529167
0.525000
0.516667
0.512500
0.512500
0.504167
0.504167
0.508333
0.508333
0.500000
0.512500
0.679167
0.283333
0.516667
0.491667
0.495833
0.487500
0.483333
0.487500
0.487500
0.483333
0.487500
0.483333
0.483333
0.479167
0.487500
0.475000
0.479167
0.475000
0.479167
0.483333
0.475000
0.466667
0.483333
0.483333
0.479167
0.479167
0.479167
0.479167
0.479167
0.479167
0.479167
0.479167
0.483333
0.475000
0.479167
0.479167
0.483333
0.475000
0.475000
0.475000
0.479167
0.470833
0.475000
0.475000
0.475000
0.475000
0.479167
0.475000
0.470833
0.475000
0.475000
0.470833
0.475000
0.475000
0.470833
0.475000
0.475000
0.466667
1.150000
0.729167
0.470833
0.933333
0.470833
0.466667
0.475000
0.470833
0.466667
0.475000
0.466667
0.475000
0.475000
0.466667
0.475000
0.470833
0.475000
0.475000
0.479167
0.470833
0.475000
0.483333
0.483333
0.475000
0.483333
0.483333
0.483333
0.483333
0.483333
0.479167
0.483333
0.479167
0.479167
0.479167
0.475000
0.479167
0.483333
0.479167
0.479167
0.475000
0.483333
0.479167
0.483333
0.479167
0.483333
0.479167
0.483333
0.483333
0.483333
0.662500
0.508333
0.354167
0.404167
0.162500
0.312500
0.487500
0.470833
0.479167
0.475000
0.479167
0.475000
0.479167
0.479167
0.479167
0.475000
0.479167
0.483333
0.483333
0.479167
0.479167
0.483333
0.487500
0.483333
0.483333
0.483333
0.483333
0.487500
0.479167
0.479167
0.483333
0.479167
0.491667
0.483333
0.479167
0.483333
0.483333
0.487500
0.487500
0.483333
0.483333
0.975000
0.487500
0.491667
0.991667
0.495833
0.491667
0.500000
0.495833
0.495833
0.495833
0.495833
0.495833
0.500000
0.500000
0.495833
0.991667
0.495833
0.495833
1.000000
0.629167
0.370833
0.391667
1.095833
0.491667
0.495833
0.491667
0.491667
0.500000
0.487500
0.987500
0.491667
0.662500
0.325000
0.495833
0.483333
0.487500
0.495833
0.487500
0.658333
0.808333
0.491667
0.483333
0.483333
0.679167
0.304167
0.975000
0.487500
0.491667
0.487500
0.987500
0.491667
0.495833
0.491667
0.495833
0.662500
0.316667
0.491667
0.662500
0.108333
0.279167
0.420833
0.487500
0.491667
0.487500
0.487500
0.487500
0.487500
0.487500
0.487500
0.491667
0.483333
0.487500
0.491667
0.487500
0.487500
0.487500
0.491667
0.487500
0.487500
0.487500
0.491667
0.491667
0.491667
0.491667
0.487500
0.300000
0.195833
0.483333
0.491667
0.487500
0.487500
0.491667
0.487500
0.487500
0.195833
0.291667
0.487500
0.487500
0.637500
0.083333
0.404167
0.812500
0.483333
0.483333
0.479167
1.204167
0.579167
0.158333
0.483333
0.479167
0.487500
0.470833
0.479167
0.479167
0.479167
0.479167
0.479167
0.479167
0.483333
0.475000
0.483333
0.479167
0.487500
0.483333
0.483333
0.479167
0.487500
0.479167
0.483333
0.479167
0.475000
0.479167
0.475000
0.483333
0.475000
0.475000
0.479167
0.487500
0.487500
0.483333
0.483333
0.483333
0.612500
0.495833
0.329167
0.966667
0.479167
0.470833
0.475000
0.475000
0.475000
0.479167
0.475000
0.475000
0.479167
0.616667
0.333333
0.479167
0.475000
0.479167
0.479167
0.479167
0.470833
0.283333
0.679167
0.483333
0.475000
0.483333
0.479167
0.483333
0.483333
0.479167
0.479167
0.487500
0.491667
0.491667
0.491667
0.483333
0.491667
0.487500
0.491667
0.487500
0.483333
0.483333
0.487500
0.483333
0.483333
0.483333
0.479167
0.483333
0.483333
0.483333
0.483333
0.479167
0.483333
0.491667
0.495833
0.495833
0.495833
0.491667
0.491667
0.491667
0.495833
0.487500
0.483333
0.487500
0.487500
0.483333
0.479167
0.479167
0.479167
0.479167
0.479167
0.475000
0.475000
0.345833
0.558333
0.545833
0.483333
0.479167
0.487500
0.479167
0.375000
0.575000
0.483333
0.483333
0.479167
0.475000
0.479167
0.475000
0.479167
0.479167
0.475000
0.475000
0.483333
0.479167
0.475000
0.475000
0.479167
0.479167
0.475000
0.479167
0.479167
0.483333
0.470833
0.479167
0.483333
0.479167
0.487500
0.483333
0.475000
0.479167
0.479167
0.479167
0.470833
0.529167
0.200000
0.229167
0.470833
0.379167
0.583333
0.479167
0.483333
0.479167
0.483333
0.475000
0.483333
0.479167
0.483333
0.475000
0.479167
0.479167
0.483333
0.479167
0.479167
0.479167
0.483333
0.479167
0.487500
0.483333
0.483333
0.633333
0.283333
0.537500
0.975000
0.483333
0.479167
0.487500
0.487500
0.491667
0.487500
0.483333
0.479167
0.487500
0.479167
0.479167
0.479167
0.470833
0.479167
0.479167
0.479167
0.479167
0.475000
0.475000
0.475000
0.595833
0.608333
0.220833
0.333333
0.620833
0.475000
0.479167
0.475000
0.470833
0.470833
0.475000
0.470833
0.470833
0.479167
0.475000
0.470833
0.470833
0.475000
0.470833
0.475000
0.475000
0.487500
0.475000
0.470833
0.479167
0.479167
0.479167
0.475000
0.466667
0.479167
0.475000
0.475000
0.475000
0.470833
0.475000
0.475000
0.479167
0.366667
0.591667
0.475000
0.487500
0.479167
0.487500
0.483333
0.479167
0.487500
0.479167
0.487500
0.479167
0.475000
0.479167
0.479167
0.483333
0.483333
0.483333
0.487500
0.475000
0.487500
0.479167
0.487500
0.666667
0.066667
0.304167
0.520833
0.712500
0.329167
0.333333
0.241667
0.245833
0.679167
0.291667
0.870833
0.100000
0.487500
0.770833
0.191667
0.483333
0.475000
0.370833
0.112500
0.475000
0.004167
0.470833
0.483333
0.475000
0.483333
0.479167
0.483333
0.495833
0.475000
0.487500
0.487500
0.387500
