0.550000
0.550000
0.529167
0.204167
0.395833
0.437500
0.670833
0.333333
0.220833
0.558333
1.066667
0.541667
0.441667
0.633333
0.520833
1.083333
0.545833
0.529167
0.541667
0.541667
0.533333
0.516667
0.533333
0.529167
0.533333
0.520833
0.512500
0.525000
0.525000
0.516667
0.504167
0.520833
0.520833
0.516667
0.508333
0.516667
0.516667
1.033333
0.187500
0.333333
0.225000
0.295833
0.295833
0.400000
0.408333
0.458333
0.529167
0.712500
0.441667
0.100000
0.495833
0.350000
0.458333
0.425000
0.545833
0.133333
0.520833
0.416667
0.112500
0.500000
0.354167
0.579167
0.825000
0.316667
0.533333
0.279167
0.433333
0.270833
0.275000
0.316667
0.525000
0.620833
0.404167
0.545833
0.529167
0.533333
0.225000
0.287500
0.512500
0.445833
0.083333
0.520833
0.520833
0.508333
0.520833
0.529167
0.525000
0.508333
0.520833
0.525000
0.520833
0.500000
0.512500
0.516667
0.520833
0.508333
0.500000
0.516667
0.512500
0.516667
0.495833
0.516667
0.212500
0.500000
0.329167
0.733333
0.279167
0.250000
0.320833
0.470833
0.500000
0.516667
0.525000
0.516667
0.420833
0.475000
0.883333
0.270833
0.508333
0.512500
0.733333
0.287500
0.995833
1.016667
0.500000
1.004167
1.029167
0.495833
0.516667
1.016667
0.495833
0.487500
1.012500
0.495833
0.483333
1.004167
0.983333
0.491667
0.491667
0.975000
0.487500
0.483333
0.479167
0.487500
0.479167
0.483333
0.483333
0.483333
0.237500
0.245833
0.483333
0.475000
0.337500
0.641667
0.479167
0.470833
0.491667
0.475000
0.475000
0.466667
0.487500
0.475000
0.475000
0.466667
0.479167
0.470833
0.475000
0.470833
0.466667
0.470833
0.470833
0.475000
0.470833
0.395833
0.554167
0.470833
0.387500
0.745833
0.291667
0.470833
0.466667
0.475000
0.475000
0.470833
0.470833
0.470833
0.475000
0.475000
0.466667
1.150000
0.279167
0.554167
0.383333
0.733333
0.208333
0.466667
0.308333
0.662500
0.458333
0.404167
0.741667
0.300000
1.120833
0.312500
0.479167
0.950000
0.241667
0.408333
0.304167
0.479167
0.479167
0.479167
0.470833
0.470833
0.470833
0.475000
0.475000
0.470833
0.470833
0.929167
0.391667
0.616667
0.987500
0.491667
0.475000
0.487500
0.491667
0.491667
0.470833
0.491667
0.491667
0.475000
0.475000
0.495833
0.495833
0.475000
0.491667
0.495833
0.491667
0.479167
0.491667
0.491667
0.475000
0.487500
0.495833
0.483333
0.479167
0.500000
0.500000
0.479167
0.500000
0.500000
0.483333
0.491667
0.504167
0.500000
0.500000
0.491667
0.350000
0.662500
0.495833
0.495833
0.508333
0.475000
0.491667
0.495833
0.495833
0.483333
0.500000
0.500000
0.500000
0.479167
0.491667
0.500000
0.483333
0.491667
0.504167
0.500000
0.495833
0.516667
0.516667
0.495833
0.512500
1.012500
0.495833
0.516667
0.508333
0.487500
0.508333
0.508333
0.487500
0.500000
0.508333
0.495833
0.487500
0.504167
0.500000
0.495833
0.479167
0.487500
0.504167
0.483333
0.425000
0.537500
0.495833
0.483333
0.487500
0.495833
0.487500
0.479167
0.337500
0.841667
0.304167
0.495833
0.300000
0.866667
0.333333
0.508333
0.187500
0.312500
0.487500
0.679167
0.083333
0.445833
0.387500
0.400000
0.566667
0.425000
0.500000
0.833333
0.637500
0.483333
0.170833
0.495833
0.304167
0.491667
0.475000
0.483333
0.487500
0.479167
0.470833
0.483333
0.670833
0.283333
0.479167
0.487500
0.495833
0.470833
0.483333
0.975000
0.979167
0.650000
0.791667
0.300000
0.187500
0.658333
0.683333
0.316667
0.279167
0.329167
0.804167
0.291667
0.450000
0.516667
0.470833
0.366667
0.954167
0.587500
0.491667
0.966667
0.483333
0.483333
0.495833
0.470833
0.483333
0.504167
0.466667
0.483333
0.487500
0.479167
0.475000
0.162500
0.812500
0.966667
0.470833
0.470833
0.662500
0.504167
0.254167
0.458333
0.475000
0.470833
0.454167
0.950000
0.454167
0.479167
0.820833
0.329167
0.420833
0.304167
0.920833
0.475000
0.466667
0.479167
0.479167
0.462500
0.466667
0.479167
0.479167
0.458333
0.475000
0.479167
0.454167
0.466667
0.479167
0.470833
0.458333
0.475000
0.479167
0.466667
0.466667
0.479167
0.475000
0.475000
0.470833
0.466667
0.466667
0.458333
0.941667
0.470833
0.450000
0.458333
0.479167
0.470833
0.466667
0.466667
0.483333
0.483333
0.470833
0.479167
0.483333
0.470833
0.483333
0.483333
0.462500
0.470833
0.954167
0.462500
0.479167
0.954167
0.470833
0.470833
0.454167
0.462500
0.475000
0.466667
0.458333
0.466667
0.475000
0.470833
0.458333
0.462500
0.320833
0.641667
0.466667
0.470833
0.683333
0.287500
0.262500
0.204167
0.475000
0.570833
0.387500
0.841667
0.437500
0.466667
0.350000
0.183333
0.662500
0.779167
0.541667
0.466667
0.395833
0.175000
0.395833
0.179167
0.762500
0.466667
0.470833
0.550000
0.395833
0.466667
0.466667
0.950000
0.641667
0.970833
0.266667
0.470833
0.362500
0.483333
0.641667
0.862500
0.508333
0.466667
0.475000
0.470833
0.941667
0.466667
0.404167
0.479167
0.220833
0.450000
0.350000
0.645833
0.291667
0.354167
0.787500
0.262500
0.470833
0.466667
0.475000
0.470833
0.458333
0.841667
0.600000
0.479167
0.670833
0.312500
1.166667
0.779167
0.470833
0.483333
0.954167
0.945833
0.470833
0.466667
0.466667
0.479167
0.479167
0.462500
0.475000
0.479167
0.462500
0.466667
0.479167
0.475000
0.462500
0.479167
0.479167
0.479167
0.466667
0.479167
0.483333
0.483333
0.470833
0.479167
0.483333
0.475000
0.462500
0.462500
0.479167
0.475000
0.458333
0.462500
0.470833
0.483333
0.462500
0.475000
0.479167
0.483333
0.470833
0.479167
0.600000
0.370833
0.483333
0.479167
0.466667
0.491667
0.479167
0.462500
0.470833
0.479167
0.479167
0.470833
0.475000
0.479167
0.483333
0.470833
0.475000
0.491667
0.462500
0.479167
0.479167
0.483333
0.470833
0.970833
0.466667
0.791667
0.179167
0.300000
0.633333
0.975000
0.475000
0.475000
0.687500
0.183333
0.583333
0.491667
0.487500
0.483333
0.487500
0.487500
0.479167
0.479167
0.958333
0.483333
0.466667
0.479167
0.491667
0.487500
0.479167
1.000000
0.487500
0.408333
0.266667
0.320833
0.304167
0.375000
0.300000
0.500000
0.487500
0.487500
0.370833
0.795833
0.295833
0.504167
0.500000
0.495833
0.487500
0.979167
0.470833
0.487500
0.479167
0.458333
0.475000
0.479167
0.470833
0.470833
0.491667
0.504167
0.479167
0.504167
0.512500
0.512500
0.512500
0.533333
0.533333
0.525000
0.533333
0.541667
0.516667
0.529167
0.516667
0.495833
0.495833
0.500000
0.479167
0.483333
0.491667
0.475000
0.479167
0.487500
0.479167
0.475000
0.483333
0.479167
0.466667
0.470833
0.945833
0.454167
0.470833
0.470833
0.458333
0.458333
0.483333
0.475000
0.475000
0.483333
0.479167
0.475000
0.479167
0.495833
0.491667
0.483333
0.500000
0.500000
0.500000
0.512500
0.520833
0.516667
0.520833
0.541667
0.533333
0.525000
1.083333
0.525000
0.537500
0.525000
0.516667
0.533333
0.520833
0.508333
0.520833
0.504167
0.508333
0.491667
0.495833
0.500000
0.487500
0.495833
0.529167
0.512500
0.512500
0.533333
0.525000
0.512500
0.529167
0.529167
0.508333
0.529167
0.529167
0.508333
0.525000
0.525000
0.504167
0.525000
0.520833
0.512500
0.525000
0.541667
0.529167
0.525000
0.537500
0.529167
0.533333
0.537500
0.525000
0.520833
0.525000
0.516667
0.516667
0.504167
0.504167
1.000000
0.491667
0.491667
0.491667
0.516667
0.508333
0.516667
0.516667
0.529167
0.516667
0.537500
0.529167
0.520833
0.525000
0.533333
0.529167
0.391667
0.662500
0.537500
0.520833
0.550000
0.541667
0.525000
0.620833
0.962500
0.520833
0.537500
0.725000
0.470833
0.337500
0.308333
0.212500
0.508333
0.487500
0.704167
0.295833
0.966667
0.770833
0.233333
0.487500
0.500000
0.504167
0.512500
0.725000
0.312500
1.041667
0.504167
0.520833
1.012500
0.504167
1.004167
0.495833
0.495833
0.508333
0.504167
0.504167
0.679167
0.337500
0.345833
0.666667
0.504167
0.516667
1.004167
0.508333
1.016667
0.495833
0.516667
0.533333
1.041667
1.283333
0.329167
1.091667
1.087500
0.558333
0.545833
0.541667
1.095833
0.533333
1.104167
0.541667
1.112500
1.087500
0.550000
0.729167
0.358333
0.545833
0.533333
0.533333
0.725000
1.000000
0.341667
0.520833
0.516667
0.533333
0.529167
0.383333
0.687500
0.545833
0.550000
0.541667
0.545833
0.554167
0.550000
0.537500
0.558333
0.558333
0.545833
0.541667
0.750000
0.375000
0.550000
1.112500
0.554167
0.533333
0.558333
0.554167
0.537500
0.545833
0.554167
0.550000
0.537500
0.554167
0.545833
0.533333
0.537500
0.766667
0.337500
0.533333
0.545833
1.004167
0.616667
0.545833
0.554167
0.550000
0.533333
0.554167
0.558333
1.104167
0.554167
0.562500
0.545833
0.550000
0.558333
0.529167
0.541667
0.550000
0.533333
0.387500
0.345833
0.291667
0.720833
0.379167
0.708333
0.345833
1.404167
0.195833
0.533333
0.537500
0.212500
0.333333
0.612500
0.458333
0.537500
0.533333
1.045833
1.033333
0.700000
0.512500
0.354167
0.145833
0.837500
1.020833
0.516667
0.708333
0.337500
1.033333
0.520833
1.033333
0.504167
1.037500
0.529167
0.512500
0.525000
0.533333
0.525000
0.545833
0.537500
0.550000
0.545833
1.116667
0.708333
0.391667
0.770833
0.854167
0.533333
0.541667
0.533333
0.533333
0.533333
0.225000
0.308333
0.216667
0.437500
0.425000
0.525000
0.216667
0.329167
0.541667
0.720833
0.362500
0.554167
1.220833
0.220833
0.754167
0.554167
0.545833
0.545833
0.795833
0.312500
0.545833
0.770833
0.341667
0.445833
0.312500
0.316667
0.733333
0.316667
1.029167
0.658333
0.837500
0.479167
0.975000
0.479167
0.479167
0.479167
0.483333
0.491667
0.491667
0.491667
0.500000
0.512500
0.520833
0.529167
0.529167
0.525000
0.520833
0.516667
0.520833
0.520833
0.520833
0.508333
0.525000
0.516667
0.529167
0.512500
0.533333
0.533333
0.525000
0.541667
0.537500
0.554167
1.258333
0.358333
0.545833
0.525000
1.075000
0.529167
0.512500
0.641667
0.375000
0.429167
0.583333
0.495833
0.904167
0.145833
1.050000
0.545833
0.533333
0.545833
0.554167
0.554167
0.537500
0.550000
0.558333
0.541667
0.550000
0.550000
0.537500
0.525000
1.045833
0.525000
0.520833
0.520833
0.233333
0.308333
0.533333
0.720833
0.783333
0.158333
0.745833
0.387500
0.216667
0.370833
0.162500
0.591667
0.279167
0.862500
0.566667
0.387500
0.991667
0.258333
0.308333
0.566667
0.525000
0.654167
0.154167
0.425000
0.816667
0.512500
0.695833
0.845833
1.041667
0.537500
0.516667
0.512500
0.516667
0.525000
0.516667
0.508333
0.270833
0.762500
0.516667
1.045833
0.545833
0.558333
0.279167
0.270833
0.437500
0.700000
1.141667
0.516667
0.604167
1.087500
0.554167
1.087500
0.366667
0.716667
1.391667
0.858333
1.450000
0.645833
0.966667
1.091667
1.116667
0.562500
0.554167
0.566667
0.650000
0.450000
0.550000
0.725000
0.308333
1.075000
0.520833
1.270833
0.358333
0.558333
1.170833
0.570833
0.583333
0.604167
0.595833
1.004167
0.750000
0.566667
0.566667
1.150000
1.133333
0.583333
0.566667
0.220833
0.350000
0.454167
0.704167
0.766667
0.550000
0.391667
0.216667
0.354167
0.225000
0.329167
0.566667
0.558333
0.558333
0.729167
0.383333
0.379167
0.716667
0.775000
0.345833
0.562500
0.545833
0.533333
0.366667
0.437500
0.470833
0.362500
0.537500
0.512500
0.525000
1.012500
0.287500
1.508333
