0.362500
0.387500
0.475000
0.616667
0.395833
0.345833
0.345833
0.358333
0.362500
0.362500
0.354167
0.362500
0.362500
0.358333
0.362500
0.358333
0.366667
0.358333
0.362500
0.366667
0.362500
0.366667
0.366667
0.358333
0.362500
0.362500
0.366667
0.358333
0.358333
0.366667
0.366667
0.362500
0.362500
0.354167
0.366667
0.362500
0.366667
0.366667
0.366667
0.362500
0.362500
0.358333
0.366667
0.362500
0.366667
0.362500
0.354167
0.366667
0.366667
0.350000
0.362500
0.375000
0.370833
0.354167
0.366667
0.366667
0.362500
0.354167
0.362500
0.362500
0.358333
0.370833
0.370833
0.354167
0.362500
0.370833
0.358333
0.362500
0.362500
0.362500
0.358333
0.370833
0.366667
0.354167
0.354167
0.366667
0.362500
0.358333
0.887500
1.508333
1.129167
0.954167
0.966667
0.954167
0.945833
0.945833
0.937500
0.937500
0.850000
1.012500
0.933333
0.916667
0.775000
1.083333
1.154167
0.479167
0.345833
0.350000
0.341667
0.350000
0.333333
0.333333
0.358333
0.245833
1.270833
1.425000
1.075000
0.904167
0.962500
0.458333
0.329167
0.545833
0.425000
0.729167
0.645833
0.670833
0.800000
0.304167
0.320833
0.375000
0.354167
0.337500
0.354167
0.341667
0.375000
0.370833
0.345833
0.329167
0.350000
0.354167
0.383333
0.387500
0.354167
0.350000
0.366667
0.350000
0.358333
0.383333
0.379167
0.354167
0.337500
0.358333
0.354167
0.337500
0.337500
0.383333
0.441667
0.425000
0.370833
0.354167
0.383333
0.395833
0.362500
0.325000
0.354167
0.366667
0.362500
0.379167
0.333333
0.387500
0.454167
0.466667
0.391667
0.383333
0.370833
0.391667
0.383333
0.354167
0.375000
0.366667
0.362500
0.366667
0.354167
0.383333
0.370833
0.358333
0.358333
0.237500
0.458333
0.350000
0.400000
0.404167
0.366667
0.362500
0.362500
0.350000
0.395833
0.475000
0.370833
0.333333
0.312500
0.333333
0.345833
0.358333
0.566667
0.441667
0.441667
0.437500
0.566667
0.383333
0.375000
0.358333
0.366667
0.362500
0.354167
0.362500
0.358333
0.354167
0.633333
0.441667
1.291667
0.954167
1.170833
1.158333
1.004167
0.954167
0.991667
0.945833
0.879167
1.079167
0.862500
0.962500
0.970833
1.029167
0.858333
0.941667
1.029167
0.937500
0.841667
1.020833
0.837500
0.929167
0.925000
0.925000
0.458333
0.333333
0.370833
0.379167
0.508333
0.275000
0.458333
0.341667
0.345833
0.358333
0.362500
0.341667
0.329167
0.333333
0.341667
0.241667
0.437500
0.362500
0.400000
0.387500
0.383333
0.345833
0.345833
0.350000
0.383333
0.466667
1.412500
0.462500
0.362500
0.333333
0.320833
0.362500
0.366667
0.337500
0.341667
0.366667
0.358333
0.350000
0.354167
0.354167
0.354167
0.354167
0.358333
0.358333
0.358333
0.362500
0.366667
0.358333
0.354167
0.362500
0.362500
0.358333
0.362500
0.366667
0.362500
0.350000
0.366667
0.370833
0.362500
0.362500
0.366667
0.362500
0.362500
0.362500
0.362500
0.370833
0.366667
0.362500
0.366667
0.366667
0.366667
0.354167
0.370833
0.375000
0.362500
0.362500
0.366667
0.366667
0.362500
0.362500
0.370833
0.370833
0.358333
0.362500
0.370833
0.366667
0.358333
0.362500
0.375000
0.366667
0.362500
0.362500
0.366667
0.358333
0.366667
0.370833
0.366667
0.362500
0.366667
0.370833
0.362500
0.362500
0.362500
0.366667
0.362500
0.370833
0.362500
0.358333
0.370833
0.366667
0.358333
0.370833
0.366667
0.358333
0.362500
0.366667
0.366667
0.366667
0.366667
0.362500
0.358333
0.362500
0.370833
0.366667
0.354167
0.370833
0.366667
0.366667
0.362500
0.366667
0.366667
0.370833
0.366667
0.354167
0.366667
0.370833
0.366667
0.358333
0.362500
0.370833
0.358333
0.366667
0.366667
0.366667
0.358333
0.362500
0.366667
0.370833
0.366667
0.366667
0.358333
0.362500
0.366667
0.366667
0.366667
0.362500
0.362500
0.366667
0.358333
0.362500
0.366667
0.366667
0.366667
0.358333
0.366667
0.370833
0.362500
0.358333
0.362500
0.366667
0.362500
0.362500
0.366667
0.362500
0.362500
0.358333
0.362500
0.366667
0.366667
0.358333
0.362500
0.366667
0.354167
0.362500
0.366667
0.366667
0.362500
0.362500
0.358333
0.366667
0.358333
0.358333
0.362500
0.366667
0.358333
0.362500
0.362500
0.358333
0.358333
0.362500
0.362500
0.362500
0.362500
0.358333
0.362500
0.358333
0.362500
0.358333
0.362500
0.366667
0.358333
0.358333
0.362500
0.366667
0.354167
0.358333
0.362500
0.362500
0.358333
0.366667
0.362500
0.354167
0.362500
0.362500
0.358333
0.362500
0.362500
0.366667
0.345833
0.362500
0.362500
0.362500
0.358333
0.366667
0.354167
0.362500
0.366667
0.358333
0.362500
0.362500
0.358333
0.354167
0.358333
0.366667
0.362500
0.358333
0.362500
0.366667
0.362500
0.358333
0.366667
0.362500
0.354167
0.362500
0.366667
0.350000
0.366667
0.370833
0.350000
0.362500
0.366667
0.362500
0.358333
0.362500
0.366667
0.350000
0.362500
0.370833
0.350000
0.362500
0.366667
0.358333
0.362500
0.362500
0.362500
0.350000
0.362500
0.362500
0.358333
0.358333
0.366667
0.362500
0.350000
0.366667
0.366667
0.354167
0.362500
0.370833
0.354167
0.358333
0.366667
0.362500
0.350000
0.358333
0.366667
0.362500
0.358333
0.362500
0.350000
0.362500
0.366667
0.350000
0.366667
0.362500
0.358333
0.362500
0.362500
0.350000
0.358333
0.362500
0.362500
0.362500
0.345833
0.358333
0.350000
0.366667
0.362500
0.354167
0.366667
0.358333
0.362500
0.362500
0.350000
0.366667
0.362500
0.350000
0.366667
0.366667
0.341667
0.358333
0.370833
0.350000
0.379167
0.391667
0.370833
0.329167
0.300000
0.354167
0.604167
1.400000
1.070833
0.991667
0.979167
0.962500
0.895833
0.941667
1.350000
0.962500
0.945833
0.875000
0.862500
1.287500
0.966667
1.062500
0.866667
1.041667
0.858333
1.033333
0.945833
0.937500
0.929167
0.845833
1.029167
0.841667
0.933333
0.933333
0.929167
0.929167
1.020833
0.370833
0.762500
0.537500
0.308333
0.370833
0.337500
0.304167
0.333333
0.345833
0.320833
0.329167
0.591667
0.683333
0.312500
1.104167
0.341667
0.354167
0.345833
0.325000
0.241667
0.437500
0.350000
0.337500
0.362500
0.366667
0.362500
0.362500
0.350000
0.358333
0.362500
0.375000
0.366667
0.595833
0.258333
0.295833
0.295833
0.320833
0.345833
0.400000
0.341667
0.412500
0.379167
0.325000
0.295833
0.350000
0.375000
0.362500
0.416667
0.379167
0.362500
0.358333
0.695833
0.275000
0.362500
0.395833
0.595833
0.258333
0.316667
0.370833
0.425000
1.716667
1.041667
1.329167
1.070833
0.945833
0.887500
0.920833
1.283333
0.937500
0.979167
0.983333
0.962500
0.470833
0.708333
0.375000
0.416667
0.495833
1.391667
0.470833
0.358333
0.366667
0.375000
0.350000
0.254167
0.441667
0.350000
0.320833
0.337500
0.520833
0.254167
0.341667
0.337500
0.341667
0.345833
0.379167
0.450000
0.379167
0.350000
0.337500
0.345833
0.345833
0.333333
0.379167
0.341667
0.341667
0.383333
0.345833
0.362500
0.366667
0.391667
0.354167
0.341667
0.366667
0.366667
0.387500
0.400000
0.366667
0.337500
0.350000
0.362500
0.345833
0.408333
0.604167
0.287500
0.345833
0.333333
0.358333
0.350000
0.350000
0.354167
0.366667
0.370833
0.345833
0.370833
0.337500
0.350000
0.362500
0.341667
0.345833
0.362500
0.379167
0.362500
0.366667
0.370833
0.354167
0.345833
0.350000
0.366667
0.458333
0.387500
0.458333
0.387500
0.375000
0.375000
1.816667
1.437500
1.004167
1.345833
0.962500
1.329167
0.945833
1.333333
1.416667
0.600000
0.241667
0.383333
0.883333
1.000000
1.270833
0.487500
0.620833
0.783333
0.716667
0.704167
0.675000
0.679167
0.691667
0.545833
0.745833
0.441667
0.391667
0.450000
0.375000
0.312500
0.758333
1.395833
0.979167
1.037500
0.983333
0.991667
0.979167
0.979167
0.975000
0.470833
0.712500
0.529167
0.687500
0.783333
0.633333
1.687500
1.000000
1.291667
0.812500
0.458333
0.370833
0.329167
0.337500
0.254167
0.404167
0.383333
0.395833
0.366667
0.345833
0.387500
0.383333
0.416667
0.400000
0.387500
0.354167
1.200000
1.387500
0.637500
1.754167
0.537500
0.770833
0.675000
0.325000
0.366667
0.325000
0.304167
0.312500
0.325000
1.266667
1.304167
0.779167
0.729167
0.295833
0.362500
0.350000
0.341667
0.350000
0.350000
0.350000
0.350000
0.354167
0.358333
0.358333
0.358333
0.354167
0.362500
0.358333
0.358333
0.358333
0.362500
0.362500
0.362500
0.358333
0.358333
0.362500
0.362500
0.362500
0.362500
0.362500
0.362500
0.366667
0.366667
0.358333
0.362500
0.366667
0.362500
0.354167
0.366667
0.370833
0.362500
0.362500
0.362500
0.366667
0.358333
0.366667
0.366667
0.362500
0.362500
0.358333
0.370833
0.366667
0.366667
0.354167
0.366667
0.370833
0.362500
0.358333
0.366667
0.366667
0.362500
0.366667
0.366667
0.366667
0.362500
0.366667
0.362500
0.366667
0.358333
0.362500
0.370833
0.366667
0.362500
0.362500
0.362500
0.370833
0.362500
0.366667
0.366667
0.366667
0.362500
0.366667
0.366667
0.362500
0.366667
0.366667
0.366667
0.362500
0.362500
0.366667
0.362500
0.362500
0.362500
0.370833
0.362500
0.354167
0.366667
0.370833
0.362500
0.358333
0.362500
0.366667
0.362500
0.362500
0.362500
0.366667
0.358333
0.366667
0.354167
0.366667
0.366667
0.362500
0.358333
0.366667
0.362500
0.354167
0.370833
0.370833
0.358333
0.358333
0.370833
0.366667
0.350000
0.362500
0.370833
0.362500
0.358333
0.233333
0.500000
0.354167
0.366667
0.362500
0.354167
0.366667
0.362500
0.358333
0.362500
0.358333
0.362500
0.366667
0.354167
0.362500
0.362500
0.358333
0.362500
0.358333
0.362500
0.362500
0.358333
0.362500
0.362500
0.362500
0.358333
0.362500
0.358333
0.350000
0.366667
0.366667
0.350000
0.362500
0.366667
0.354167
0.362500
0.362500
0.362500
0.366667
0.358333
0.354167
0.362500
0.362500
0.362500
0.358333
0.362500
0.362500
0.362500
0.350000
0.366667
0.370833
0.350000
0.362500
0.370833
0.358333
0.362500
0.362500
0.362500
0.362500
0.362500
0.366667
0.362500
0.354167
0.362500
0.366667
0.358333
0.362500
0.366667
0.358333
0.362500
0.370833
0.362500
0.350000
0.370833
0.370833
0.358333
0.233333
0.520833
0.395833
0.762500
0.579167
1.625000
1.137500
0.895833
0.900000
1.395833
0.962500
0.970833
0.941667
0.933333
0.929167
0.870833
0.841667
1.283333
1.050000
0.891667
0.962500
1.045833
0.954167
0.950000
0.945833
0.854167
1.029167
0.850000
0.937500
0.458333
0.858333
0.679167
0.808333
1.516667
0.654167
0.645833
0.395833
0.391667
0.720833
0.662500
0.925000
0.345833
0.541667
1.033333
1.233333
0.895833
0.670833
0.545833
0.354167
0.375000
0.333333
0.362500
0.375000
0.358333
0.333333
0.329167
0.333333
1.454167
1.254167
0.987500
1.250000
0.662500
0.558333
0.637500
0.295833
0.395833
0.370833
0.350000
0.345833
0.333333
0.333333
0.333333
0.341667
0.245833
0.470833
0.325000
0.316667
0.491667
0.587500
1.366667
1.037500
0.979167
0.983333
0.470833
0.708333
0.370833
0.445833
1.350000
0.470833
0.341667
0.329167
0.700000
0.779167
0.404167
0.341667
0.366667
0.537500
0.262500
0.350000
0.341667
0.362500
0.412500
0.379167
0.416667
0.383333
0.379167
0.250000
0.429167
0.358333
0.358333
0.345833
0.337500
0.350000
0.350000
0.350000
0.354167
0.333333
0.337500
0.387500
0.395833
0.383333
0.366667
0.350000
0.362500
0.412500
0.379167
0.395833
0.379167
0.358333
0.370833
0.383333
0.383333
0.362500
0.345833
0.354167
0.362500
0.358333
0.350000
0.354167
0.350000
0.320833
0.383333
0.383333
0.387500
0.408333
0.487500
0.362500
0.429167
0.366667
0.391667
0.679167
0.291667
0.354167
0.354167
0.358333
0.358333
0.362500
1.420833
1.195833
1.229167
0.987500
1.020833
0.983333
0.975000
0.975000
0.958333
0.945833
0.933333
1.000000
0.779167
1.050000
0.820833
1.204167
0.487500
0.350000
0.345833
0.341667
0.358333
0.341667
0.466667
0.225000
0.475000
0.383333
0.300000
0.312500
0.391667
0.370833
0.354167
0.358333
0.362500
0.362500
0.362500
0.362500
0.362500
0.362500
0.358333
0.362500
0.362500
0.358333
0.358333
0.350000
0.354167
0.354167
0.354167
0.358333
0.358333
0.341667
0.337500
0.354167
0.383333
0.391667
0.358333
0.345833
0.350000
0.350000
0.354167
0.366667
0.391667
0.391667
0.383333
0.445833
0.416667
0.366667
0.354167
0.379167
0.391667
0.391667
0.375000
0.379167
0.391667
0.395833
0.362500
0.329167
0.350000
0.362500
0.354167
0.341667
0.366667
0.395833
0.370833
0.358333
0.370833
0.625000
0.291667
0.395833
1.650000
1.112500
1.370833
1.029167
1.300000
0.995833
1.033333
0.995833
0.991667
1.000000
0.983333
0.979167
0.975000
0.966667
0.983333
