0.520833
0.520833
0.516667
0.408333
0.112500
0.516667
0.516667
0.516667
0.516667
0.516667
0.520833
0.516667
0.512500
0.516667
0.516667
0.520833
0.516667
0.516667
0.516667
0.516667
0.516667
0.516667
0.520833
0.512500
0.325000
0.195833
0.512500
0.470833
0.558333
0.508333
0.508333
0.508333
0.508333
0.508333
0.508333
0.508333
0.504167
0.508333
0.508333
0.508333
0.504167
0.504167
0.508333
0.504167
0.504167
0.504167
0.512500
0.508333
0.516667
0.512500
0.512500
0.516667
0.516667
0.512500
0.520833
0.512500
0.683333
0.854167
0.516667
0.354167
0.158333
0.512500
0.504167
0.516667
0.383333
0.350000
0.283333
0.504167
0.508333
0.508333
0.504167
0.504167
0.504167
0.508333
0.508333
0.508333
0.508333
0.508333
0.508333
0.508333
0.508333
0.508333
0.512500
0.512500
0.512500
0.512500
0.516667
0.516667
0.520833
0.520833
0.516667
0.520833
0.520833
0.420833
0.095833
0.525000
0.254167
0.258333
0.516667
0.516667
0.525000
0.520833
0.391667
0.216667
0.425000
0.516667
0.512500
0.512500
0.512500
0.512500
0.512500
0.512500
0.512500
0.512500
0.516667
0.516667
0.516667
0.516667
0.516667
0.520833
0.520833
0.525000
0.525000
0.529167
0.520833
0.566667
0.287500
0.483333
0.250000
0.525000
0.525000
0.250000
0.495833
0.095833
0.612500
0.629167
0.508333
0.516667
0.516667
0.512500
0.512500
0.512500
0.512500
0.512500
0.512500
0.516667
0.512500
0.516667
0.520833
0.520833
0.520833
0.525000
0.525000
0.520833
0.533333
0.525000
0.533333
0.529167
0.529167
0.533333
0.533333
0.533333
0.533333
0.537500
0.533333
0.533333
0.533333
0.529167
0.533333
0.533333
0.529167
0.529167
0.533333
0.533333
0.533333
0.537500
0.533333
0.533333
0.541667
0.541667
0.533333
0.537500
0.529167
0.529167
0.529167
0.529167
0.529167
0.525000
0.533333
0.533333
0.537500
0.533333
0.541667
0.833333
0.225000
0.245833
0.279167
0.525000
0.654167
0.908333
0.325000
0.195833
0.416667
0.095833
0.516667
0.583333
0.525000
0.575000
0.375000
0.508333
0.687500
0.154167
0.695833
0.508333
0.512500
0.550000
0.458333
0.508333
0.504167
0.233333
0.266667
0.345833
0.304167
0.175000
0.679167
0.495833
0.500000
0.495833
0.500000
0.504167
0.508333
0.504167
0.504167
0.504167
0.508333
0.508333
0.508333
0.508333
0.512500
0.512500
0.512500
0.516667
0.512500
0.520833
0.516667
0.516667
0.520833
0.520833
0.525000
0.525000
0.520833
0.533333
0.529167
0.529167
0.529167
0.529167
0.533333
0.525000
0.529167
0.525000
0.529167
0.529167
0.529167
0.529167
0.525000
0.529167
0.533333
0.525000
0.529167
0.687500
0.366667
0.533333
0.512500
0.516667
0.520833
0.512500
0.516667
0.508333
0.520833
0.512500
0.700000
0.837500
0.508333
0.337500
0.420833
0.766667
0.512500
0.504167
0.512500
0.508333
0.508333
0.512500
0.512500
0.508333
0.512500
0.516667
1.000000
0.216667
0.320833
0.512500
0.512500
0.512500
0.512500
0.512500
0.516667
0.520833
0.516667
0.520833
0.520833
0.516667
0.516667
0.520833
0.520833
0.520833
0.520833
0.525000
0.525000
0.516667
0.525000
0.520833
0.525000
0.733333
0.837500
0.158333
0.250000
0.379167
0.458333
0.845833
0.291667
0.754167
0.516667
0.241667
0.787500
0.516667
0.512500
0.512500
0.508333
0.512500
0.929167
0.587500
0.508333
0.604167
0.300000
0.620833
0.500000
0.504167
0.508333
0.512500
0.504167
0.508333
0.500000
0.500000
0.504167
0.504167
0.500000
0.508333
0.500000
0.504167
0.504167
0.508333
0.508333
0.508333
0.512500
0.512500
0.512500
0.516667
0.512500
0.512500
0.516667
0.516667
0.516667
0.520833
0.516667
0.520833
0.520833
0.525000
0.525000
0.520833
0.416667
0.354167
0.237500
0.541667
0.512500
0.516667
0.512500
0.512500
0.512500
0.525000
0.512500
0.512500
0.512500
0.516667
0.508333
0.512500
0.512500
0.516667
0.516667
0.516667
0.516667
0.512500
0.520833
0.516667
0.516667
0.520833
0.516667
0.516667
0.541667
0.491667
0.208333
0.308333
0.512500
0.512500
0.508333
0.637500
0.391667
0.512500
0.516667
0.512500
0.512500
0.516667
0.512500
0.520833
0.516667
0.516667
0.516667
0.516667
0.516667
0.520833
0.520833
0.279167
0.241667
0.520833
0.520833
0.520833
0.520833
0.529167
0.525000
0.520833
0.520833
0.529167
0.525000
0.529167
0.525000
0.529167
0.533333
0.533333
0.529167
0.525000
0.529167
0.529167
0.525000
0.525000
0.520833
0.520833
0.520833
0.525000
0.520833
0.520833
0.520833
0.520833
0.520833
0.520833
0.520833
0.525000
0.525000
0.525000
0.520833
0.533333
0.529167
0.529167
0.529167
0.525000
0.525000
0.525000
0.529167
0.529167
0.529167
0.525000
0.529167
0.525000
0.458333
0.366667
0.350000
0.233333
1.212500
0.512500
0.520833
0.520833
0.520833
0.520833
0.516667
0.516667
0.520833
0.520833
0.520833
0.520833
0.520833
0.525000
0.520833
0.525000
0.608333
0.437500
0.520833
0.525000
0.529167
0.529167
0.520833
0.529167
0.420833
0.637500
0.533333
0.525000
0.533333
0.537500
0.537500
0.537500
0.533333
0.533333
0.541667
0.541667
0.541667
0.537500
0.466667
0.250000
0.883333
0.533333
0.520833
0.529167
0.300000
0.220833
0.520833
0.245833
0.270833
0.525000
0.512500
0.520833
0.525000
0.516667
0.691667
0.350000
0.520833
0.529167
0.687500
0.362500
0.525000
0.529167
0.412500
0.637500
0.450000
0.004167
0.600000
0.241667
0.279167
0.525000
0.520833
0.520833
0.258333
0.458333
0.333333
0.262500
0.254167
0.520833
0.525000
0.683333
0.350000
0.508333
0.516667
0.512500
0.516667
0.512500
0.512500
0.512500
0.512500
0.512500
0.508333
0.512500
0.516667
1.025000
0.516667
0.512500
0.516667
0.512500
0.512500
0.512500
0.516667
0.525000
0.520833
0.525000
0.525000
0.525000
0.525000
0.533333
0.525000
0.529167
0.529167
0.529167
0.533333
0.533333
0.529167
0.529167
0.529167
0.520833
0.529167
0.516667
0.525000
0.512500
0.516667
0.208333
0.308333
0.508333
0.512500
0.508333
0.333333
0.220833
0.154167
0.304167
0.516667
0.508333
0.508333
0.508333
0.508333
0.512500
0.512500
0.512500
0.512500
0.516667
0.512500
0.516667
0.516667
0.512500
0.516667
0.516667
0.516667
0.520833
0.520833
0.520833
0.516667
0.516667
0.470833
0.562500
0.508333
0.516667
0.512500
0.516667
0.183333
0.325000
0.508333
0.308333
0.208333
0.512500
0.508333
0.508333
0.508333
0.508333
0.508333
0.508333
0.512500
0.508333
0.508333
0.462500
0.566667
0.504167
0.508333
0.508333
0.508333
0.416667
0.595833
0.391667
0.616667
0.279167
0.229167
0.504167
0.495833
0.429167
0.575000
0.495833
0.504167
0.495833
0.495833
0.500000
0.504167
0.500000
0.500000
0.495833
0.504167
0.508333
0.504167
0.504167
0.504167
0.512500
0.512500
0.508333
0.354167
0.654167
0.400000
0.620833
0.575000
0.425000
0.500000
0.504167
0.500000
0.500000
0.500000
0.504167
0.500000
0.495833
0.500000
0.500000
0.229167
0.762500
0.495833
0.495833
0.495833
0.495833
0.495833
0.495833
0.500000
0.504167
0.500000
0.504167
0.500000
0.504167
0.504167
0.504167
0.500000
0.504167
0.504167
0.508333
0.500000
0.504167
0.504167
0.500000
0.508333
0.500000
0.500000
0.500000
0.504167
0.504167
0.508333
0.508333
0.504167
0.504167
0.500000
0.508333
0.679167
0.829167
0.500000
0.500000
0.500000
0.504167
0.500000
0.500000
0.500000
0.500000
0.500000
0.500000
0.491667
0.500000
0.491667
0.500000
0.495833
0.495833
0.500000
0.495833
0.500000
0.504167
0.500000
0.500000
0.495833
0.504167
0.500000
0.504167
0.495833
0.495833
0.500000
0.500000
0.500000
0.495833
0.500000
0.500000
0.500000
0.504167
0.500000
0.504167
0.504167
0.504167
0.508333
0.504167
0.508333
0.504167
0.508333
0.512500
0.512500
0.504167
0.512500
0.508333
0.508333
0.508333
0.512500
0.508333
0.508333
0.512500
0.516667
0.512500
0.516667
0.512500
0.512500
0.512500
0.512500
0.508333
0.508333
0.508333
0.554167
0.433333
0.533333
0.504167
0.508333
0.504167
0.500000
0.500000
0.500000
0.500000
0.500000
0.500000
0.495833
0.500000
0.500000
0.500000
0.500000
0.508333
0.504167
0.508333
0.691667
0.545833
0.425000
0.366667
0.500000
0.504167
0.500000
1.145833
0.358333
0.350000
0.345833
0.845833
0.283333
0.679167
0.491667
0.500000
0.500000
0.500000
0.500000
0.500000
0.500000
0.500000
0.500000
0.495833
0.504167
0.500000
0.500000
0.500000
0.504167
0.504167
0.504167
0.504167
0.500000
0.504167
0.504167
0.337500
0.662500
0.270833
0.725000
0.675000
0.312500
0.995833
0.570833
0.425000
0.345833
0.775000
0.308333
0.312500
0.729167
0.504167
0.500000
0.491667
0.987500
0.495833
0.500000
0.500000
0.495833
0.500000
0.500000
0.504167
0.504167
0.504167
0.500000
0.508333
0.508333
0.508333
0.504167
0.504167
0.504167
0.504167
0.500000
1.375000
0.220833
0.412500
0.504167
0.500000
0.500000
0.495833
0.500000
0.495833
0.495833
0.495833
0.500000
0.495833
0.500000
0.500000
0.504167
0.500000
0.504167
0.504167
0.504167
0.504167
0.508333
0.508333
0.504167
0.504167
0.504167
0.508333
0.508333
0.512500
0.508333
0.508333
0.508333
0.508333
0.508333
0.508333
0.508333
0.512500
0.508333
0.508333
0.508333
0.504167
0.512500
0.512500
0.512500
0.370833
0.654167
0.504167
0.379167
0.137500
0.512500
0.508333
0.504167
0.504167
0.508333
0.504167
0.495833
0.129167
0.370833
0.504167
0.500000
0.329167
0.662500
0.787500
0.116667
0.608333
0.495833
0.654167
0.337500
0.500000
0.320833
0.179167
0.750000
0.512500
0.225000
0.491667
0.500000
0.495833
0.495833
0.491667
0.495833
0.495833
0.500000
0.500000
0.495833
0.500000
0.712500
0.229167
0.550000
0.508333
0.500000
0.279167
0.220833
0.504167
0.495833
0.504167
0.500000
0.508333
0.495833
0.508333
0.495833
0.508333
0.500000
0.508333
0.504167
0.504167
0.500000
1.016667
0.687500
0.308333
0.641667
0.358333
0.500000
0.500000
0.500000
0.500000
0.504167
0.495833
0.504167
1.004167
0.491667
0.300000
0.208333
0.500000
0.491667
0.404167
0.287500
0.320833
0.275000
0.225000
0.491667
0.695833
0.791667
0.387500
0.625000
0.983333
0.500000
0.495833
0.495833
0.250000
0.750000
0.995833
0.991667
0.991667
0.504167
0.500000
0.500000
1.000000
0.995833
0.408333
0.341667
0.262500
0.491667
0.504167
0.500000
0.491667
0.504167
0.495833
0.495833
0.491667
0.491667
0.495833
0.491667
0.983333
0.491667
0.495833
0.500000
0.991667
0.491667
0.495833
0.491667
0.983333
0.500000
0.491667
0.491667
0.550000
0.212500
0.241667
0.495833
0.195833
0.312500
0.995833
0.504167
0.500000
0.504167
0.545833
0.833333
0.625000
0.500000
0.504167
1.000000
1.000000
0.266667
0.804167
0.920833
0.495833
0.500000
0.462500
0.529167
0.495833
0.500000
1.000000
0.500000
0.500000
0.500000
1.012500
1.008333
0.508333
0.504167
0.504167
1.008333
0.504167
0.508333
0.508333
0.508333
0.383333
0.633333
0.504167
0.508333
0.275000
0.233333
0.504167
0.508333
0.504167
0.504167
0.504167
1.008333
0.504167
0.504167
0.508333
0.504167
1.012500
1.020833
0.508333
0.516667
0.508333
0.508333
0.508333
0.366667
0.716667
0.600000
0.395833
0.675000
0.383333
0.425000
0.950000
0.495833
0.495833
1.000000
0.995833
0.500000
0.500000
0.495833
0.500000
0.495833
0.504167
0.700000
0.337500
0.395833
0.225000
0.333333
0.625000
0.050000
0.812500
0.995833
0.991667
0.500000
0.500000
0.504167
0.500000
0.500000
1.108333
0.395833
0.500000
0.500000
0.504167
0.508333
0.500000
0.504167
1.000000
0.266667
0.237500
0.220833
0.279167
0.495833
0.500000
0.495833
0.495833
0.500000
0.495833
0.504167
0.500000
0.495833
0.495833
0.491667
0.495833
0.500000
0.495833
0.495833
0.500000
0.500000
0.500000
0.500000
0.495833
0.504167
0.504167
0.279167
0.716667
0.495833
0.500000
0.500000
0.504167
0.500000
0.500000
0.495833
0.500000
0.504167
0.495833
0.233333
0.270833
0.500000
0.504167
0.508333
0.512500
