0.591667
0.591667
0.600000
0.591667
0.595833
0.591667
0.587500
0.579167
0.579167
0.583333
0.566667
0.570833
0.266667
0.304167
0.570833
0.570833
0.566667
0.562500
0.562500
0.566667
0.566667
0.566667
0.579167
0.566667
0.575000
0.579167
0.570833
0.579167
0.570833
0.575000
0.575000
0.579167
0.566667
0.570833
0.570833
0.570833
0.575000
0.570833
0.570833
0.579167
0.570833
0.566667
0.575000
0.575000
0.575000
0.570833
0.570833
0.579167
0.583333
0.583333
0.575000
0.570833
0.575000
0.579167
0.579167
0.579167
0.575000
0.579167
0.579167
0.579167
0.583333
0.583333
0.583333
0.587500
0.587500
0.583333
0.595833
0.583333
0.591667
0.587500
0.579167
0.587500
0.587500
0.587500
0.595833
0.587500
0.600000
0.600000
0.595833
0.600000
0.600000
0.591667
0.600000
0.595833
0.600000
0.600000
0.591667
0.591667
0.379167
0.208333
0.791667
0.370833
0.570833
0.570833
0.570833
0.566667
0.566667
0.558333
0.562500
0.570833
0.562500
0.562500
0.562500
0.570833
0.562500
0.558333
0.566667
0.562500
0.562500
0.566667
0.558333
0.562500
0.562500
0.558333
0.558333
0.554167
0.558333
0.554167
0.562500
0.562500
0.562500
0.570833
0.575000
0.566667
0.570833
0.579167
0.579167
0.579167
0.570833
0.575000
0.587500
0.583333
0.591667
0.591667
0.579167
0.833333
0.325000
0.566667
0.562500
0.570833
0.575000
0.562500
0.566667
0.570833
0.575000
0.570833
0.570833
0.575000
0.570833
0.579167
0.575000
0.579167
0.575000
0.566667
0.170833
0.400000
0.558333
0.566667
0.558333
0.562500
0.558333
0.554167
0.550000
0.554167
0.558333
0.554167
0.558333
0.566667
0.562500
0.558333
0.558333
0.558333
0.554167
0.550000
0.554167
0.554167
0.554167
0.554167
0.554167
0.562500
0.558333
0.558333
0.562500
0.562500
0.570833
0.575000
0.583333
0.575000
0.579167
0.591667
0.587500
0.583333
0.591667
0.591667
0.587500
0.583333
0.583333
0.583333
0.587500
0.595833
0.591667
0.591667
0.570833
0.575000
0.579167
0.570833
0.562500
0.570833
0.566667
0.562500
0.566667
0.562500
0.570833
0.566667
0.566667
0.566667
0.575000
0.566667
0.566667
0.570833
0.570833
0.570833
0.575000
0.570833
0.570833
0.570833
0.575000
0.512500
0.612500
0.562500
0.566667
0.562500
0.558333
0.562500
0.575000
0.566667
0.562500
0.570833
0.566667
0.566667
0.570833
0.562500
0.562500
0.570833
0.566667
0.566667
0.575000
0.566667
0.570833
0.562500
0.566667
0.566667
0.566667
0.566667
0.566667
0.566667
0.570833
0.566667
0.562500
0.570833
0.562500
0.558333
0.554167
0.950000
0.166667
0.558333
0.545833
0.558333
0.554167
0.558333
0.554167
0.558333
0.554167
0.558333
0.558333
0.558333
0.558333
0.558333
0.554167
0.554167
0.562500
0.554167
0.558333
0.558333
0.562500
0.566667
0.566667
0.566667
0.566667
0.575000
0.570833
0.579167
0.587500
0.583333
0.579167
0.583333
0.575000
0.579167
0.570833
0.570833
0.570833
0.562500
0.570833
0.579167
0.575000
0.575000
0.575000
0.575000
0.587500
0.583333
0.583333
0.470833
0.116667
0.579167
0.520833
0.654167
0.558333
0.566667
0.570833
0.558333
0.441667
0.687500
0.566667
0.558333
0.554167
0.554167
0.562500
0.558333
0.558333
0.558333
0.558333
0.558333
0.554167
0.558333
0.558333
0.558333
0.554167
0.558333
0.558333
0.566667
0.566667
0.566667
0.570833
0.575000
0.575000
0.579167
0.587500
0.604167
0.595833
0.595833
0.604167
0.587500
0.604167
0.595833
0.591667
0.587500
0.587500
0.595833
0.600000
0.591667
0.600000
0.591667
0.595833
0.329167
0.258333
0.587500
0.591667
0.575000
0.570833
0.562500
0.470833
0.645833
0.558333
0.558333
0.554167
0.554167
0.554167
0.558333
0.554167
0.554167
0.558333
0.558333
0.558333
0.558333
0.562500
0.566667
0.562500
0.562500
0.570833
0.575000
0.575000
0.575000
0.575000
0.575000
0.575000
0.570833
0.579167
0.362500
0.787500
0.570833
0.579167
0.579167
0.587500
0.579167
0.591667
0.591667
0.583333
0.575000
0.437500
0.345833
0.354167
0.570833
0.570833
0.575000
0.566667
0.566667
0.566667
0.575000
0.575000
0.583333
0.583333
0.583333
0.583333
0.587500
0.587500
0.587500
0.591667
0.583333
0.591667
0.591667
0.595833
0.583333
0.583333
0.591667
0.583333
0.591667
0.583333
0.587500
0.587500
0.583333
0.579167
0.579167
0.579167
0.579167
0.575000
0.566667
0.566667
0.575000
0.579167
0.575000
0.570833
0.566667
0.570833
0.570833
0.566667
0.562500
0.562500
0.562500
0.558333
0.558333
0.562500
0.566667
0.562500
0.570833
0.566667
0.566667
0.566667
0.566667
0.570833
0.579167
0.579167
0.583333
0.583333
0.579167
0.579167
0.579167
0.587500
0.583333
0.583333
0.583333
0.583333
0.604167
0.591667
0.591667
0.591667
0.595833
0.608333
0.604167
0.612500
0.604167
0.616667
0.612500
0.608333
0.600000
0.591667
0.595833
0.600000
0.591667
0.591667
0.587500
0.595833
0.600000
0.591667
0.600000
0.600000
0.595833
0.600000
0.587500
0.604167
0.600000
0.604167
0.595833
0.595833
0.595833
0.595833
0.591667
0.591667
0.587500
0.162500
0.425000
0.579167
0.583333
0.575000
0.579167
0.575000
0.579167
0.570833
0.575000
0.575000
0.566667
0.566667
0.570833
0.575000
0.579167
0.570833
0.587500
0.583333
0.700000
0.458333
0.570833
0.575000
0.566667
0.566667
0.570833
0.575000
0.570833
0.570833
0.575000
0.579167
0.575000
0.575000
0.575000
0.362500
0.225000
0.575000
0.266667
0.312500
0.566667
0.575000
0.570833
0.562500
0.575000
0.575000
0.575000
0.575000
0.575000
0.570833
0.570833
0.570833
0.583333
0.583333
0.583333
0.583333
0.575000
0.225000
0.345833
0.562500
0.562500
0.558333
0.562500
0.554167
0.554167
0.554167
0.562500
0.558333
0.554167
0.554167
0.558333
0.562500
0.562500
0.562500
0.570833
0.566667
0.566667
0.570833
0.566667
0.566667
0.558333
0.558333
0.558333
0.554167
0.558333
0.554167
0.562500
0.558333
0.558333
0.566667
0.566667
0.558333
0.566667
0.562500
0.566667
0.566667
0.562500
0.562500
0.562500
0.566667
0.566667
0.566667
0.562500
0.570833
0.575000
0.570833
0.570833
0.566667
0.566667
0.566667
0.570833
0.579167
0.583333
0.583333
0.591667
0.591667
0.595833
0.595833
0.600000
0.608333
0.595833
0.595833
0.591667
0.595833
0.604167
0.587500
0.595833
0.304167
0.287500
0.587500
0.587500
0.591667
0.591667
0.600000
0.600000
0.595833
0.591667
0.587500
0.583333
0.591667
0.583333
0.587500
0.579167
0.583333
0.587500
0.587500
0.583333
0.579167
0.583333
0.583333
0.579167
0.579167
0.587500
0.579167
0.583333
0.587500
0.591667
0.591667
0.595833
0.595833
0.591667
0.612500
0.283333
0.325000
0.600000
0.595833
0.595833
0.600000
0.604167
0.595833
0.587500
0.587500
0.591667
0.583333
0.583333
0.579167
0.583333
0.579167
0.583333
0.579167
0.583333
0.579167
0.583333
0.583333
0.583333
0.583333
0.575000
0.591667
0.583333
0.579167
0.295833
0.283333
0.575000
0.583333
0.587500
0.579167
0.575000
0.579167
0.570833
0.583333
0.579167
0.575000
0.575000
0.579167
0.587500
0.579167
0.579167
0.575000
0.583333
0.579167
0.591667
0.579167
0.587500
0.587500
0.583333
0.583333
0.587500
0.587500
0.579167
0.587500
0.583333
0.587500
0.575000
0.587500
0.579167
0.579167
0.583333
0.579167
0.583333
0.595833
0.600000
0.591667
0.595833
0.587500
0.591667
0.587500
0.408333
0.450000
0.316667
0.579167
0.587500
0.579167
0.575000
0.566667
0.570833
0.570833
0.566667
0.566667
0.570833
0.570833
0.575000
0.570833
0.566667
0.566667
0.570833
0.570833
0.575000
0.575000
0.579167
0.575000
0.579167
0.579167
0.583333
0.587500
0.579167
0.583333
0.570833
0.575000
0.566667
0.570833
0.291667
0.270833
0.558333
0.566667
0.558333
0.566667
0.566667
0.562500
0.562500
0.566667
0.554167
0.562500
0.566667
0.570833
0.570833
0.562500
0.562500
0.566667
0.570833
0.562500
0.570833
0.566667
0.566667
0.562500
0.558333
0.566667
0.566667
0.566667
0.566667
0.575000
0.570833
0.570833
0.562500
0.570833
0.325000
0.241667
0.570833
0.562500
0.558333
0.562500
0.570833
0.562500
0.562500
0.570833
0.566667
0.566667
0.570833
0.558333
0.570833
0.566667
0.570833
0.570833
0.566667
0.570833
0.579167
0.570833
0.570833
0.579167
0.579167
0.583333
0.575000
0.583333
0.575000
0.575000
0.566667
0.570833
0.575000
0.562500
0.562500
0.562500
0.562500
0.570833
0.575000
0.570833
0.570833
0.566667
0.566667
0.570833
0.566667
0.566667
0.566667
0.566667
0.566667
0.575000
0.570833
0.570833
0.575000
0.575000
0.566667
0.579167
0.579167
0.583333
0.591667
0.583333
0.579167
0.583333
0.575000
0.575000
0.579167
0.575000
0.566667
0.575000
0.570833
0.562500
0.570833
0.575000
0.566667
0.566667
0.566667
0.570833
0.575000
0.570833
0.566667
0.566667
0.566667
0.558333
0.570833
0.212500
0.345833
0.558333
0.558333
0.558333
0.554167
0.558333
0.554167
0.554167
0.554167
0.554167
0.562500
0.558333
0.558333
0.558333
0.562500
0.566667
0.562500
0.566667
0.570833
0.575000
0.575000
0.579167
0.575000
0.570833
0.579167
0.570833
0.570833
0.562500
0.566667
0.562500
0.358333
0.208333
0.570833
0.137500
0.366667
0.591667
0.550000
0.550000
0.550000
0.550000
0.554167
0.554167
0.558333
0.562500
0.566667
0.566667
0.570833
0.570833
0.579167
0.575000
0.575000
0.579167
0.575000
0.583333
0.579167
0.575000
0.575000
0.420833
0.716667
0.566667
0.570833
0.575000
0.329167
0.241667
0.562500
0.579167
0.566667
0.575000
0.575000
0.579167
0.575000
0.570833
0.575000
0.566667
0.570833
0.575000
0.566667
0.575000
0.579167
0.575000
0.429167
0.712500
0.341667
0.787500
0.562500
0.558333
0.558333
0.558333
0.558333
0.562500
0.558333
0.566667
0.554167
0.545833
0.554167
0.550000
0.545833
0.550000
0.550000
0.550000
0.550000
0.554167
0.550000
0.554167
0.550000
0.550000
0.550000
0.550000
0.554167
0.541667
0.550000
0.545833
0.545833
0.541667
0.545833
0.537500
0.545833
0.545833
0.541667
0.541667
0.545833
0.550000
0.550000
0.554167
0.550000
0.554167
0.550000
0.554167
0.558333
0.550000
0.554167
0.554167
0.558333
0.558333
0.558333
0.558333
0.554167
0.554167
0.562500
0.566667
0.562500
0.554167
0.562500
0.558333
0.562500
0.562500
0.562500
0.575000
0.566667
0.566667
0.600000
0.245833
0.287500
0.566667
0.558333
0.562500
0.558333
0.558333
0.554167
0.562500
0.554167
0.312500
0.233333
0.550000
0.541667
0.545833
0.483333
0.604167
0.537500
0.541667
0.541667
0.545833
0.541667
0.550000
0.541667
0.545833
0.550000
0.558333
0.550000
0.550000
0.554167
0.558333
0.550000
0.562500
0.562500
0.562500
0.558333
0.558333
0.341667
0.216667
0.566667
0.675000
0.441667
0.550000
0.550000
0.550000
0.545833
0.550000
0.550000
0.554167
0.550000
0.545833
0.554167
0.550000
0.550000
0.545833
0.554167
0.550000
0.550000
