0.587500
0.583333
0.579167
0.583333
0.587500
0.579167
0.579167
0.587500
0.587500
0.583333
0.575000
0.587500
0.583333
0.579167
0.579167
0.587500
0.587500
0.583333
0.579167
0.583333
0.587500
0.579167
0.579167
0.583333
0.591667
0.579167
0.579167
0.579167
0.587500
0.583333
0.575000
0.579167
0.583333
0.587500
0.579167
0.579167
0.579167
0.583333
0.579167
0.575000
0.579167
0.583333
0.579167
0.579167
0.575000
0.579167
0.583333
0.579167
0.575000
0.579167
0.587500
0.579167
0.575000
0.583333
0.579167
0.579167
0.579167
0.583333
0.587500
0.237500
0.395833
0.520833
0.587500
0.579167
0.575000
0.583333
0.579167
0.579167
0.570833
0.583333
0.570833
0.583333
0.575000
0.583333
0.583333
0.579167
0.575000
0.587500
0.587500
0.579167
0.579167
0.583333
0.591667
0.579167
0.579167
0.583333
0.458333
0.429167
0.283333
0.575000
0.583333
0.295833
0.295833
0.629167
0.225000
0.275000
0.579167
0.579167
0.583333
0.575000
0.575000
0.575000
0.583333
0.575000
0.575000
0.570833
0.583333
0.745833
0.408333
0.570833
0.575000
0.579167
0.579167
0.575000
0.570833
0.579167
0.583333
0.566667
0.570833
0.566667
0.575000
0.583333
0.570833
0.570833
0.566667
0.575000
0.575000
0.570833
0.566667
0.579167
0.575000
0.570833
0.570833
0.566667
0.295833
0.283333
0.220833
0.237500
0.366667
0.495833
0.479167
0.679167
0.270833
0.695833
0.575000
0.575000
0.587500
0.570833
0.575000
0.575000
0.591667
0.575000
0.575000
0.579167
0.583333
0.579167
0.575000
0.575000
0.579167
0.583333
0.579167
0.575000
0.579167
0.583333
0.579167
0.570833
0.579167
0.587500
0.575000
0.575000
0.579167
0.583333
0.575000
0.570833
0.579167
0.579167
0.575000
0.570833
0.616667
0.837500
0.583333
0.154167
0.558333
0.825000
0.395833
0.104167
0.258333
0.308333
0.304167
0.225000
0.570833
0.575000
0.558333
0.225000
0.354167
0.445833
0.275000
0.408333
0.570833
0.245833
0.325000
0.337500
0.208333
0.354167
0.241667
0.566667
0.745833
0.566667
0.395833
0.566667
0.570833
0.566667
0.566667
0.570833
0.566667
0.575000
0.570833
0.566667
0.566667
0.570833
0.579167
0.570833
0.566667
0.262500
0.312500
0.570833
0.566667
0.566667
0.579167
0.579167
0.570833
0.570833
0.579167
0.587500
0.575000
0.575000
0.575000
0.587500
0.579167
0.579167
0.579167
0.583333
0.579167
0.575000
0.579167
0.579167
0.583333
0.579167
0.575000
0.583333
0.579167
0.575000
0.575000
0.308333
0.279167
0.570833
0.575000
0.575000
0.579167
0.583333
0.766667
0.833333
0.708333
0.570833
0.570833
0.579167
0.579167
0.575000
0.575000
0.579167
0.583333
0.575000
0.575000
0.575000
0.583333
0.575000
0.575000
0.575000
0.579167
0.575000
0.570833
0.570833
0.579167
0.579167
0.570833
0.570833
0.579167
0.579167
0.570833
0.570833
0.570833
0.579167
0.570833
0.570833
0.570833
0.566667
0.575000
0.575000
0.566667
0.566667
0.704167
0.445833
0.562500
0.291667
0.283333
0.570833
0.229167
0.450000
0.458333
0.629167
0.508333
0.308333
0.258333
0.562500
0.237500
0.216667
1.029167
0.225000
0.608333
0.516667
0.662500
0.479167
0.729167
0.400000
0.575000
0.558333
0.562500
0.566667
0.254167
0.316667
0.229167
0.329167
0.833333
0.108333
0.154167
0.333333
0.266667
0.295833
0.275000
0.550000
0.408333
0.379167
0.341667
1.275000
0.420833
0.566667
0.562500
0.566667
0.566667
0.575000
0.362500
0.204167
0.566667
0.566667
0.579167
0.566667
0.566667
0.566667
0.570833
0.579167
0.566667
0.562500
0.575000
0.354167
0.220833
0.566667
0.566667
0.570833
0.575000
0.570833
0.566667
0.570833
0.566667
0.575000
0.570833
0.566667
0.566667
0.579167
0.566667
0.570833
0.575000
0.283333
0.291667
0.570833
0.566667
0.575000
0.575000
0.570833
0.566667
0.575000
0.579167
0.566667
0.566667
0.575000
0.579167
0.566667
0.570833
0.570833
0.579167
0.570833
0.566667
0.575000
0.575000
0.570833
0.570833
0.570833
0.579167
0.566667
0.570833
0.570833
0.579167
0.575000
0.566667
0.566667
0.570833
0.575000
0.566667
0.566667
0.566667
0.570833
0.566667
0.566667
0.562500
0.570833
0.570833
0.566667
0.562500
0.570833
0.570833
0.562500
0.562500
0.566667
0.570833
0.562500
0.566667
0.558333
0.570833
0.566667
0.562500
0.558333
0.566667
0.566667
0.562500
0.562500
0.562500
0.570833
0.562500
0.562500
0.562500
0.570833
0.566667
0.562500
0.562500
0.566667
0.566667
0.562500
0.562500
0.566667
0.570833
0.562500
0.562500
0.566667
0.570833
0.562500
0.562500
0.350000
0.212500
0.570833
0.237500
0.320833
0.562500
0.558333
0.566667
0.570833
0.562500
0.558333
0.566667
0.570833
0.566667
0.562500
0.562500
0.566667
0.570833
0.562500
0.562500
0.562500
0.575000
0.558333
0.562500
0.562500
0.570833
0.562500
0.562500
0.558333
0.566667
0.566667
0.558333
0.558333
0.562500
0.566667
0.562500
0.558333
0.558333
0.566667
0.570833
0.558333
0.558333
0.566667
0.566667
0.562500
0.562500
0.562500
0.566667
0.570833
0.562500
0.558333
0.566667
0.570833
0.562500
0.562500
0.566667
0.570833
0.566667
0.562500
0.566667
0.570833
0.566667
0.562500
0.570833
0.570833
0.566667
0.562500
0.566667
0.575000
0.562500
0.566667
0.562500
0.570833
0.570833
0.562500
0.562500
0.562500
0.570833
0.562500
0.562500
0.566667
0.566667
0.566667
0.558333
0.562500
0.566667
0.570833
0.566667
0.562500
0.566667
0.570833
0.566667
0.562500
0.566667
0.570833
0.570833
0.566667
0.562500
0.566667
0.575000
0.566667
0.566667
0.566667
0.570833
0.575000
0.562500
0.570833
0.566667
0.575000
0.570833
0.566667
0.566667
0.570833
0.579167
0.566667
0.566667
0.570833
0.575000
0.575000
0.566667
0.570833
0.570833
0.570833
0.570833
0.566667
0.566667
0.575000
0.575000
0.570833
0.570833
0.575000
0.579167
0.575000
0.570833
0.575000
0.570833
0.570833
0.570833
0.579167
0.358333
0.791667
0.575000
0.570833
0.579167
0.462500
0.412500
0.283333
0.529167
0.487500
0.412500
0.391667
0.604167
0.479167
0.420833
0.325000
0.587500
0.512500
0.483333
0.212500
0.875000
0.779167
0.745833
0.729167
0.487500
0.600000
0.600000
0.600000
0.595833
0.587500
0.595833
0.591667
0.583333
0.583333
0.583333
0.591667
0.575000
0.570833
0.250000
0.929167
0.558333
0.575000
0.575000
0.275000
0.308333
0.050000
0.516667
0.562500
0.566667
0.616667
0.525000
0.562500
0.566667
0.570833
0.575000
0.566667
0.562500
0.566667
0.566667
0.575000
0.566667
0.566667
0.562500
0.575000
0.575000
0.566667
0.566667
0.570833
0.575000
0.570833
0.566667
0.566667
0.570833
0.579167
0.566667
0.566667
0.566667
0.575000
0.575000
0.566667
0.566667
0.570833
0.575000
0.570833
0.562500
0.566667
0.566667
0.575000
0.562500
0.566667
0.566667
0.570833
0.566667
0.562500
0.566667
0.566667
0.570833
0.562500
0.562500
0.566667
0.570833
0.566667
0.562500
0.558333
0.566667
0.570833
0.562500
0.562500
0.562500
0.566667
0.575000
0.562500
0.562500
0.562500
0.570833
0.570833
0.562500
0.566667
0.562500
0.570833
0.570833
0.566667
0.566667
0.566667
0.570833
0.566667
0.566667
0.562500
0.570833
0.575000
0.562500
0.566667
0.570833
0.570833
0.575000
0.566667
0.570833
0.566667
0.575000
0.575000
0.566667
0.570833
0.683333
0.462500
0.566667
0.570833
0.570833
0.575000
0.575000
0.570833
0.570833
0.575000
0.579167
0.575000
0.575000
0.570833
0.579167
0.579167
0.575000
0.575000
0.575000
0.583333
0.575000
0.570833
0.570833
0.579167
0.579167
0.575000
0.570833
0.570833
0.579167
0.583333
0.575000
0.570833
0.575000
0.579167
0.583333
0.579167
0.579167
0.579167
0.587500
0.591667
0.579167
0.587500
0.591667
0.604167
0.608333
0.604167
0.612500
0.608333
0.625000
0.629167
0.616667
0.616667
0.629167
0.633333
0.637500
0.629167
0.629167
0.629167
0.637500
0.633333
0.620833
0.616667
0.620833
0.629167
0.616667
0.612500
0.616667
0.616667
0.608333
0.608333
0.616667
0.608333
0.600000
0.608333
0.600000
0.600000
0.600000
0.604167
0.600000
0.595833
0.600000
0.591667
0.587500
0.595833
0.600000
0.591667
0.591667
0.600000
0.600000
0.595833
0.604167
0.608333
0.608333
0.604167
0.600000
0.612500
0.616667
0.612500
0.612500
0.616667
0.616667
0.608333
0.616667
0.625000
0.641667
0.641667
0.650000
0.654167
0.666667
0.666667
0.675000
0.666667
0.666667
0.666667
0.654167
0.645833
0.637500
0.641667
0.633333
0.620833
0.616667
0.620833
0.616667
0.604167
0.600000
0.604167
0.604167
0.595833
0.587500
0.583333
0.587500
0.591667
0.583333
0.575000
0.579167
0.583333
0.587500
0.579167
0.579167
0.570833
0.579167
0.587500
0.575000
0.570833
0.570833
0.575000
0.583333
0.570833
0.570833
0.570833
0.575000
0.583333
0.570833
0.570833
0.570833
0.575000
0.579167
0.570833
0.570833
0.570833
0.570833
0.583333
0.575000
0.570833
0.570833
0.575000
0.579167
0.579167
0.575000
0.566667
0.575000
0.579167
0.579167
0.575000
0.566667
0.579167
0.579167
0.575000
0.575000
0.570833
0.579167
0.587500
0.575000
0.575000
0.575000
0.579167
0.587500
0.575000
0.575000
0.570833
0.583333
0.587500
0.575000
0.575000
0.575000
0.583333
0.587500
0.570833
0.575000
0.575000
0.579167
0.583333
0.575000
0.575000
0.575000
0.583333
0.579167
0.575000
0.575000
0.575000
0.583333
0.575000
0.575000
0.575000
0.579167
0.587500
0.575000
0.575000
0.683333
0.100000
0.245833
0.262500
0.429167
0.350000
0.562500
0.258333
0.420833
0.720833
0.570833
0.570833
0.575000
0.583333
0.575000
0.570833
0.570833
0.579167
0.579167
0.575000
0.570833
0.570833
0.570833
0.579167
0.583333
0.575000
0.570833
0.575000
0.579167
0.579167
0.575000
0.570833
0.575000
0.579167
0.570833
0.575000
0.570833
0.575000
0.579167
0.579167
0.583333
0.570833
0.570833
0.575000
0.579167
0.579167
0.575000
0.575000
0.575000
0.587500
0.575000
0.579167
0.575000
0.583333
0.583333
0.575000
0.575000
0.579167
0.587500
0.575000
0.579167
0.579167
0.583333
0.579167
0.579167
0.575000
0.583333
0.591667
0.575000
0.579167
0.579167
0.583333
0.579167
0.575000
0.575000
0.579167
0.587500
0.575000
0.575000
0.575000
0.583333
0.583333
0.575000
0.575000
0.575000
0.583333
0.587500
0.575000
0.579167
0.579167
0.587500
0.579167
0.579167
0.579167
0.587500
0.579167
0.575000
0.579167
0.587500
0.579167
0.575000
0.575000
0.583333
0.587500
0.575000
0.579167
0.579167
0.587500
0.583333
0.579167
0.579167
0.587500
0.587500
0.579167
0.583333
0.583333
0.591667
0.583333
0.579167
0.583333
0.591667
0.583333
0.579167
0.583333
0.583333
0.587500
0.583333
0.579167
0.587500
0.579167
0.583333
0.583333
0.587500
0.583333
0.583333
0.583333
0.591667
0.583333
0.583333
0.583333
0.587500
0.583333
0.587500
0.587500
0.591667
0.587500
0.583333
0.583333
0.587500
0.591667
0.583333
0.579167
0.583333
