0.566667
0.562500
0.575000
0.562500
0.562500
0.554167
0.587500
0.554167
0.562500
0.575000
0.554167
0.566667
0.558333
0.566667
0.562500
0.566667
0.562500
0.554167
0.566667
0.562500
0.570833
0.558333
0.566667
0.566667
0.566667
0.558333
0.566667
0.566667
0.566667
0.554167
0.675000
0.450000
0.570833
0.570833
0.570833
0.550000
0.570833
0.570833
0.570833
0.566667
0.570833
0.562500
0.562500
0.579167
0.575000
0.554167
0.562500
0.579167
0.566667
0.566667
0.575000
0.562500
0.579167
0.550000
0.575000
0.566667
0.570833
0.570833
0.566667
0.579167
0.562500
0.562500
0.579167
0.558333
0.575000
0.570833
0.562500
0.562500
0.583333
0.566667
0.550000
0.566667
0.575000
0.566667
0.566667
0.566667
0.566667
0.566667
0.566667
0.554167
0.558333
1.125000
0.583333
0.562500
0.529167
0.587500
0.562500
0.575000
0.558333
0.570833
0.566667
0.566667
0.570833
0.558333
0.579167
0.570833
0.545833
0.575000
0.575000
0.570833
0.575000
0.562500
0.566667
1.133333
0.566667
0.566667
0.558333
0.687500
0.225000
0.220833
0.575000
0.562500
0.575000
0.558333
0.675000
0.458333
0.570833
0.570833
0.566667
0.562500
0.575000
0.562500
0.558333
0.570833
0.670833
0.458333
0.566667
0.558333
0.570833
0.566667
0.566667
0.575000
0.554167
0.566667
0.570833
0.558333
0.554167
0.570833
0.579167
0.579167
0.566667
0.558333
0.566667
0.579167
0.570833
0.566667
0.579167
0.566667
0.579167
0.558333
0.575000
0.562500
0.583333
0.575000
0.562500
0.579167
0.583333
0.562500
0.566667
0.333333
0.254167
0.570833
0.570833
0.566667
0.570833
0.570833
0.558333
0.566667
0.566667
0.554167
0.570833
0.550000
0.570833
0.554167
0.362500
0.212500
0.554167
0.566667
0.570833
0.537500
0.558333
0.566667
0.562500
0.566667
0.558333
0.566667
0.562500
0.558333
0.550000
0.554167
0.562500
0.562500
0.566667
0.270833
0.287500
0.562500
0.554167
0.558333
0.558333
0.558333
0.562500
0.562500
0.554167
0.566667
0.562500
0.558333
0.566667
0.558333
0.570833
0.554167
0.566667
0.554167
0.570833
0.562500
0.550000
0.570833
0.558333
0.562500
0.562500
0.566667
0.566667
0.566667
0.562500
0.575000
0.562500
0.570833
0.287500
0.275000
0.566667
0.554167
0.562500
0.575000
0.570833
0.554167
0.570833
0.566667
0.562500
0.570833
0.554167
0.570833
0.570833
0.554167
0.570833
0.570833
0.550000
0.558333
0.570833
0.558333
0.575000
0.558333
0.566667
0.570833
0.562500
0.570833
0.570833
0.554167
0.554167
0.020833
0.554167
0.579167
0.554167
0.570833
0.562500
0.562500
0.570833
0.566667
0.554167
0.570833
0.562500
0.566667
0.562500
0.558333
0.570833
0.562500
0.570833
0.566667
0.575000
0.562500
0.575000
0.558333
0.570833
0.566667
0.566667
0.570833
0.570833
0.558333
0.562500
0.566667
0.575000
0.550000
0.570833
0.566667
0.566667
0.566667
0.566667
0.562500
0.575000
0.562500
0.566667
0.562500
0.566667
0.566667
0.558333
0.562500
0.575000
0.566667
0.554167
0.570833
0.554167
0.570833
0.554167
0.570833
0.554167
0.566667
0.566667
0.558333
0.562500
0.575000
0.558333
0.570833
0.558333
0.575000
0.558333
0.575000
0.570833
0.566667
0.575000
0.562500
0.579167
0.570833
0.558333
0.570833
0.554167
0.566667
0.562500
0.558333
0.562500
0.554167
0.575000
0.558333
0.570833
0.562500
0.566667
0.562500
0.558333
0.570833
0.562500
0.558333
0.570833
0.554167
0.570833
0.554167
0.558333
0.562500
0.562500
0.554167
0.554167
0.558333
0.558333
0.562500
0.550000
0.562500
0.558333
0.550000
0.550000
0.562500
0.562500
0.554167
0.550000
0.562500
0.558333
0.554167
0.566667
0.554167
0.562500
0.558333
0.554167
0.566667
0.562500
0.562500
0.566667
0.558333
0.566667
0.562500
0.570833
0.566667
0.566667
0.675000
0.458333
0.558333
0.575000
0.562500
0.570833
0.566667
0.558333
0.570833
0.575000
0.554167
0.566667
0.575000
0.558333
0.575000
0.558333
0.570833
0.566667
0.558333
0.575000
0.570833
0.558333
0.575000
0.575000
0.558333
0.579167
0.558333
0.575000
0.570833
0.570833
0.562500
0.575000
0.575000
0.562500
0.575000
0.562500
0.575000
0.562500
0.575000
0.575000
0.570833
0.562500
0.575000
0.562500
0.570833
0.570833
0.570833
0.575000
0.250000
0.425000
0.245833
0.320833
0.466667
0.554167
0.566667
0.562500
0.566667
0.554167
0.566667
0.537500
0.550000
0.575000
0.550000
0.566667
0.562500
0.575000
0.666667
0.466667
0.545833
0.562500
0.558333
0.575000
0.545833
0.562500
0.558333
0.554167
0.570833
0.562500
0.558333
0.566667
0.558333
0.566667
0.558333
0.562500
0.558333
0.566667
0.562500
0.566667
0.554167
0.570833
0.558333
0.558333
0.558333
0.566667
0.558333
0.558333
0.562500
0.383333
0.741667
0.562500
0.545833
0.558333
0.550000
0.554167
0.566667
0.550000
0.570833
0.558333
0.562500
0.558333
0.562500
0.554167
0.566667
0.554167
0.566667
0.558333
0.566667
0.566667
0.554167
0.566667
0.566667
0.558333
0.570833
0.554167
0.566667
0.562500
0.554167
0.566667
0.558333
0.558333
0.566667
0.566667
0.566667
0.670833
0.454167
0.566667
0.566667
0.662500
0.550000
0.462500
0.554167
0.562500
0.558333
0.545833
0.566667
0.554167
0.554167
0.550000
0.562500
0.541667
0.570833
0.558333
0.550000
0.545833
0.558333
0.554167
0.558333
0.550000
0.562500
0.550000
0.558333
0.554167
0.554167
0.562500
0.554167
0.562500
0.550000
0.558333
0.558333
0.554167
0.566667
0.562500
0.550000
0.558333
0.558333
0.558333
0.562500
0.550000
0.562500
0.558333
0.558333
0.566667
0.562500
0.550000
0.562500
0.558333
0.554167
0.562500
0.545833
0.562500
0.554167
0.554167
0.558333
0.558333
0.550000
0.562500
0.550000
0.562500
0.554167
0.558333
0.554167
0.558333
0.558333
0.558333
0.550000
0.562500
0.554167
0.554167
0.562500
0.545833
0.558333
0.550000
0.550000
0.562500
0.545833
0.558333
0.550000
0.554167
0.554167
0.558333
0.545833
0.558333
0.545833
0.558333
0.545833
0.558333
0.550000
0.554167
0.541667
0.554167
0.550000
0.558333
0.550000
0.558333
0.558333
0.541667
0.545833
0.558333
0.558333
0.541667
0.550000
0.558333
0.558333
0.550000
0.562500
0.558333
0.550000
0.558333
0.554167
0.558333
0.562500
0.554167
0.550000
0.562500
0.562500
0.554167
0.562500
0.562500
0.554167
0.562500
0.562500
0.562500
0.558333
0.566667
0.554167
0.566667
0.554167
0.562500
0.566667
0.550000
0.566667
0.562500
0.558333
0.562500
0.566667
0.558333
0.570833
0.558333
0.566667
0.558333
0.562500
0.566667
0.566667
0.558333
0.570833
0.562500
0.558333
0.566667
0.554167
0.566667
0.554167
0.562500
0.562500
0.554167
0.562500
0.562500
0.554167
0.566667
0.550000
0.562500
0.554167
0.558333
0.562500
0.554167
0.558333
0.554167
0.554167
0.562500
0.562500
0.550000
0.258333
0.375000
0.462500
0.300000
0.245833
0.550000
0.550000
0.541667
0.562500
0.541667
0.550000
0.533333
0.458333
0.083333
0.550000
0.550000
0.545833
0.550000
0.545833
0.541667
0.550000
0.541667
0.545833
0.550000
0.383333
0.708333
0.550000
0.550000
0.541667
0.550000
0.545833
0.545833
0.550000
0.545833
0.545833
0.554167
0.545833
0.550000
0.554167
0.541667
0.554167
0.550000
0.545833
0.554167
0.554167
0.541667
0.554167
0.550000
0.550000
0.554167
0.550000
0.558333
0.545833
0.558333
0.550000
0.554167
0.554167
0.545833
0.558333
0.545833
0.558333
0.545833
0.558333
0.545833
0.558333
0.554167
0.550000
0.558333
0.550000
0.550000
0.558333
0.554167
0.550000
0.558333
0.545833
0.558333
0.550000
0.558333
0.550000
0.562500
0.545833
0.566667
0.545833
0.558333
0.558333
0.550000
0.554167
0.554167
0.550000
0.554167
0.545833
0.558333
0.545833
0.558333
0.550000
0.550000
0.554167
0.558333
0.545833
0.558333
0.550000
0.558333
0.545833
0.558333
0.558333
0.554167
0.550000
0.558333
0.550000
0.533333
0.662500
0.170833
0.283333
0.554167
0.558333
0.558333
0.558333
0.558333
0.545833
0.558333
0.558333
0.554167
0.654167
0.458333
0.550000
0.554167
0.558333
0.545833
0.562500
0.550000
0.558333
0.558333
0.554167
0.562500
0.554167
0.562500
0.558333
0.562500
0.550000
0.558333
0.566667
0.558333
0.554167
0.562500
0.562500
0.554167
0.562500
0.550000
0.566667
0.554167
0.566667
0.550000
0.558333
0.558333
0.558333
0.550000
0.566667
0.554167
0.554167
0.566667
0.554167
0.566667
0.562500
0.558333
0.566667
0.570833
0.554167
0.566667
0.566667
0.558333
0.566667
0.566667
0.558333
0.575000
0.558333
0.570833
0.562500
0.566667
0.566667
0.562500
0.570833
0.558333
0.558333
0.566667
0.558333
0.566667
0.558333
0.566667
0.558333
0.562500
0.550000
0.566667
0.558333
0.562500
0.566667
0.558333
0.566667
0.562500
0.562500
0.562500
0.562500
0.562500
0.562500
0.566667
0.562500
0.566667
0.566667
0.558333
0.566667
0.558333
0.562500
0.558333
0.566667
0.562500
0.558333
0.562500
0.554167
0.566667
0.554167
0.570833
0.558333
0.545833
0.558333
0.566667
0.558333
0.554167
0.562500
0.558333
0.554167
0.562500
0.558333
0.554167
0.558333
0.558333
0.554167
0.562500
0.550000
0.562500
0.545833
0.562500
0.550000
0.558333
0.554167
0.550000
0.554167
0.558333
0.550000
0.562500
0.545833
0.562500
0.550000
0.558333
0.554167
0.554167
0.545833
0.558333
0.554167
0.554167
0.545833
0.558333
0.554167
0.550000
0.554167
0.550000
0.554167
0.550000
0.554167
0.550000
0.562500
0.545833
0.558333
0.550000
0.558333
0.550000
0.558333
0.545833
0.554167
0.554167
0.550000
0.545833
0.550000
0.558333
0.550000
0.550000
0.554167
0.558333
0.550000
0.558333
0.554167
0.554167
0.545833
0.562500
0.550000
0.554167
0.562500
0.550000
0.554167
0.562500
0.558333
0.545833
0.566667
0.566667
0.562500
0.558333
0.558333
0.558333
0.558333
0.554167
0.558333
0.550000
0.562500
0.554167
0.566667
0.545833
0.566667
0.550000
0.562500
0.558333
0.562500
0.558333
0.558333
0.562500
0.558333
0.554167
0.570833
0.562500
0.562500
0.570833
0.550000
0.570833
0.558333
0.558333
0.558333
0.562500
0.554167
0.562500
0.554167
0.558333
0.558333
0.550000
0.562500
0.545833
0.562500
0.550000
0.562500
0.554167
0.554167
0.558333
0.554167
0.558333
0.558333
0.558333
0.554167
0.550000
0.554167
0.554167
0.554167
0.554167
0.554167
0.545833
0.550000
0.550000
0.558333
0.554167
0.550000
0.558333
0.550000
0.554167
0.558333
0.558333
0.558333
0.545833
0.562500
0.550000
0.550000
0.554167
0.558333
0.545833
0.554167
0.558333
0.554167
0.554167
0.550000
0.562500
0.554167
0.558333
0.558333
0.545833
0.562500
0.550000
0.562500
0.558333
0.550000
0.558333
0.562500
0.562500
0.541667
0.562500
0.554167
0.562500
0.550000
0.558333
0.554167
0.550000
0.562500
0.562500
0.545833
0.558333
0.550000
0.558333
0.558333
0.545833
0.562500
0.554167
0.550000
0.562500
0.545833
0.562500
0.550000
0.558333
0.554167
0.566667
0.550000
0.558333
0.562500
0.550000
0.566667
