0.562500
0.562500
0.566667
0.566667
0.566667
0.566667
0.562500
0.566667
0.566667
0.562500
0.566667
0.562500
0.570833
0.570833
0.562500
0.562500
0.566667
0.570833
0.562500
0.562500
0.562500
0.570833
0.566667
0.566667
0.562500
0.566667
0.570833
0.570833
0.566667
0.566667
0.566667
0.566667
0.579167
0.566667
0.566667
0.570833
0.570833
0.575000
0.566667
0.570833
0.566667
0.570833
0.575000
0.566667
0.566667
0.566667
0.570833
0.570833
0.566667
0.566667
0.562500
0.570833
0.570833
0.566667
0.566667
0.562500
0.570833
0.566667
0.566667
0.566667
0.566667
0.570833
0.566667
0.566667
0.566667
0.566667
0.570833
0.566667
0.566667
0.562500
0.570833
0.566667
0.566667
0.566667
0.562500
0.566667
0.575000
0.566667
0.570833
0.566667
0.575000
0.566667
0.566667
0.570833
0.566667
0.579167
0.570833
0.566667
0.570833
0.570833
0.208333
0.370833
0.575000
0.566667
0.570833
0.575000
0.570833
0.570833
0.570833
0.575000
0.579167
0.579167
0.570833
0.575000
0.575000
0.579167
0.575000
0.570833
0.570833
0.575000
0.575000
0.570833
0.566667
0.570833
0.570833
0.575000
0.566667
0.570833
0.566667
0.575000
0.566667
0.566667
0.566667
0.570833
0.575000
0.570833
0.566667
0.570833
0.570833
0.575000
0.566667
0.570833
0.566667
0.570833
0.570833
0.579167
0.570833
0.566667
0.575000
0.575000
0.570833
0.570833
0.570833
0.575000
0.575000
0.570833
0.570833
0.570833
0.579167
0.570833
0.566667
0.570833
0.575000
0.570833
0.570833
0.570833
0.570833
0.579167
0.566667
0.570833
0.570833
0.570833
0.575000
0.570833
0.566667
0.570833
0.570833
0.570833
0.566667
0.566667
0.570833
0.575000
0.570833
0.566667
0.562500
0.570833
0.579167
0.562500
0.562500
0.566667
0.687500
0.445833
0.787500
0.750000
0.545833
0.779167
0.579167
0.579167
0.570833
0.570833
0.579167
0.570833
0.570833
0.566667
0.575000
0.575000
0.566667
0.562500
0.733333
0.750000
0.079167
0.370833
0.337500
0.358333
0.295833
0.270833
0.208333
0.554167
0.562500
0.900000
0.216667
0.312500
0.387500
0.420833
0.562500
0.279167
0.445833
0.533333
0.404167
0.200000
0.329167
0.575000
0.562500
0.550000
0.554167
0.554167
0.558333
0.554167
0.550000
0.554167
0.562500
0.550000
0.550000
0.558333
0.562500
0.550000
0.554167
0.554167
0.562500
0.554167
0.550000
0.558333
0.562500
0.550000
0.554167
0.558333
0.562500
0.554167
0.554167
0.558333
0.558333
0.554167
0.554167
0.558333
0.558333
0.566667
0.554167
0.554167
0.558333
0.562500
0.558333
0.554167
0.558333
0.562500
0.554167
0.554167
0.554167
0.558333
0.554167
0.558333
0.554167
0.558333
0.558333
0.562500
0.545833
0.554167
0.554167
0.554167
0.558333
0.558333
0.558333
0.558333
0.558333
0.554167
0.562500
0.558333
0.558333
0.562500
0.562500
0.558333
0.558333
0.562500
0.558333
0.558333
0.558333
0.562500
0.562500
0.558333
0.558333
0.558333
0.566667
0.558333
0.558333
0.562500
0.562500
0.558333
0.558333
0.558333
0.562500
0.562500
0.558333
0.558333
0.562500
0.566667
0.245833
0.312500
0.562500
0.558333
0.566667
0.558333
0.562500
0.558333
0.566667
0.562500
0.558333
0.554167
0.558333
0.566667
0.562500
0.562500
0.562500
0.562500
0.566667
0.566667
0.558333
0.566667
0.570833
0.562500
0.562500
0.562500
0.570833
0.558333
0.562500
0.562500
0.570833
0.558333
0.562500
0.566667
0.566667
0.558333
0.562500
0.566667
0.570833
0.558333
0.566667
0.562500
0.562500
0.570833
0.562500
0.566667
0.566667
0.570833
0.562500
0.562500
0.566667
0.570833
0.562500
0.558333
0.566667
0.562500
0.566667
0.570833
0.562500
0.562500
0.566667
0.570833
0.562500
0.566667
0.562500
0.566667
0.575000
0.566667
0.562500
0.566667
0.570833
0.575000
0.566667
0.570833
0.575000
0.579167
0.583333
0.587500
0.587500
0.591667
0.595833
0.608333
0.604167
0.600000
0.595833
0.612500
0.620833
0.612500
0.608333
0.604167
0.608333
0.600000
0.604167
0.270833
0.333333
0.595833
0.595833
0.591667
0.591667
0.587500
0.579167
0.587500
0.583333
0.583333
0.583333
0.583333
0.587500
0.587500
0.579167
0.575000
0.583333
0.575000
0.579167
0.579167
0.583333
0.579167
0.575000
0.579167
0.579167
0.575000
0.583333
0.583333
0.583333
0.579167
0.591667
0.583333
0.587500
0.587500
0.600000
0.595833
0.600000
0.591667
0.604167
0.604167
0.600000
0.595833
0.616667
0.600000
0.587500
0.591667
0.595833
0.587500
0.575000
0.583333
0.583333
0.570833
0.570833
0.570833
0.575000
0.562500
0.562500
0.562500
0.566667
0.558333
0.558333
0.558333
0.562500
0.554167
0.558333
0.554167
0.562500
0.554167
0.550000
0.412500
0.204167
0.437500
0.620833
0.562500
0.566667
0.562500
0.562500
0.558333
0.558333
0.566667
0.566667
0.554167
0.558333
0.562500
0.566667
0.554167
0.558333
0.558333
0.562500
0.562500
0.558333
0.554167
0.562500
0.562500
0.554167
0.550000
0.558333
0.562500
0.550000
0.420833
0.583333
0.104167
0.558333
0.562500
0.562500
0.562500
0.566667
0.558333
0.554167
0.562500
0.229167
0.337500
0.554167
0.558333
0.562500
0.562500
0.554167
0.554167
0.558333
0.558333
0.550000
0.554167
0.550000
0.554167
0.558333
0.554167
0.550000
0.554167
0.558333
0.550000
0.554167
0.550000
0.558333
0.550000
0.550000
0.550000
0.558333
0.554167
0.550000
0.550000
0.554167
0.558333
0.550000
0.545833
0.554167
0.558333
0.550000
0.545833
0.550000
0.554167
0.550000
0.550000
0.550000
0.554167
0.729167
0.408333
0.391667
0.295833
0.283333
0.366667
0.287500
0.550000
0.250000
0.695833
0.700000
0.550000
0.545833
0.404167
0.141667
0.550000
0.558333
0.537500
0.433333
0.116667
0.541667
0.554167
0.554167
0.550000
0.537500
0.245833
0.270833
0.695833
0.425000
0.550000
0.550000
0.379167
0.500000
0.308333
0.504167
0.479167
0.575000
0.545833
0.516667
0.587500
0.254167
0.291667
0.241667
0.466667
0.170833
0.762500
0.587500
0.645833
0.254167
0.712500
0.541667
0.550000
0.550000
0.554167
0.545833
0.545833
0.545833
0.550000
0.554167
0.545833
0.545833
0.550000
0.554167
0.545833
0.541667
0.554167
0.550000
0.545833
0.545833
0.550000
0.554167
0.545833
0.541667
0.550000
0.554167
0.541667
0.545833
0.545833
0.554167
0.545833
0.545833
0.550000
0.554167
0.545833
0.545833
0.550000
0.554167
0.545833
0.545833
0.550000
0.554167
0.545833
0.550000
0.545833
0.554167
0.545833
0.545833
0.545833
0.550000
0.554167
0.541667
0.550000
0.545833
0.554167
0.541667
0.550000
0.545833
0.550000
0.554167
0.545833
0.550000
0.550000
0.550000
0.554167
0.550000
0.545833
0.550000
0.554167
0.554167
0.550000
0.550000
0.550000
0.558333
0.545833
0.550000
0.550000
0.554167
0.554167
0.550000
0.550000
0.554167
0.558333
0.550000
0.550000
0.554167
0.558333
0.550000
0.550000
0.554167
0.554167
0.554167
0.558333
0.554167
0.550000
0.550000
0.554167
0.558333
0.550000
0.550000
0.558333
0.554167
0.550000
0.554167
0.550000
0.558333
0.550000
0.554167
0.554167
0.554167
0.554167
0.554167
0.554167
0.554167
0.550000
0.558333
0.558333
0.554167
0.550000
0.554167
0.558333
0.554167
0.554167
0.554167
0.550000
0.558333
0.558333
0.554167
0.554167
0.554167
0.554167
0.562500
0.554167
0.554167
0.554167
0.558333
0.554167
0.550000
0.550000
0.558333
0.558333
0.550000
0.554167
0.550000
0.554167
0.558333
0.554167
0.550000
0.554167
0.562500
0.550000
0.554167
0.554167
0.554167
0.558333
0.554167
0.554167
0.554167
0.550000
0.558333
0.558333
0.554167
0.554167
0.550000
0.554167
0.562500
0.558333
0.554167
0.550000
0.558333
0.558333
0.558333
0.554167
0.554167
0.554167
0.562500
0.554167
0.554167
0.554167
0.554167
0.562500
0.554167
0.550000
0.554167
0.554167
0.458333
0.633333
0.575000
0.550000
0.554167
0.562500
0.550000
0.554167
0.550000
0.558333
0.558333
0.550000
0.554167
0.554167
0.554167
0.558333
0.554167
0.558333
0.554167
0.554167
0.562500
0.558333
0.554167
0.554167
0.558333
0.558333
0.562500
0.554167
0.554167
0.558333
0.558333
0.562500
0.554167
0.554167
0.558333
0.558333
0.558333
0.558333
0.554167
0.558333
0.562500
0.558333
0.554167
0.558333
0.554167
0.558333
0.566667
0.554167
0.558333
0.558333
0.558333
0.566667
0.554167
0.558333
0.558333
0.558333
0.566667
0.554167
0.558333
0.558333
0.558333
0.562500
0.554167
0.558333
0.554167
0.562500
0.562500
0.554167
0.558333
0.558333
0.566667
0.554167
0.558333
0.558333
0.562500
0.562500
0.554167
0.558333
0.558333
0.558333
0.558333
0.562500
0.554167
0.554167
0.558333
0.558333
0.562500
0.554167
0.554167
0.558333
0.554167
0.562500
0.558333
0.554167
0.554167
0.558333
0.562500
0.558333
0.554167
0.558333
0.558333
0.562500
0.554167
0.558333
0.558333
0.558333
0.562500
0.558333
0.554167
0.562500
0.558333
0.562500
0.558333
0.558333
0.558333
0.558333
0.562500
0.558333
0.558333
0.558333
0.566667
0.558333
0.558333
0.558333
0.562500
0.566667
0.562500
0.558333
0.562500
0.562500
0.562500
0.566667
0.562500
0.562500
0.562500
0.566667
0.562500
0.558333
0.562500
0.562500
0.566667
0.558333
0.562500
0.558333
0.566667
0.562500
0.562500
0.558333
0.558333
0.562500
0.566667
0.562500
0.558333
0.558333
0.566667
0.562500
0.558333
0.562500
0.562500
0.566667
0.279167
0.283333
0.558333
0.558333
0.566667
0.566667
0.558333
0.562500
0.558333
0.566667
0.558333
0.558333
0.562500
0.558333
0.566667
0.558333
0.562500
0.558333
0.566667
0.558333
0.558333
0.562500
0.566667
0.558333
0.562500
0.558333
0.566667
0.558333
0.558333
0.562500
0.566667
0.558333
0.558333
0.558333
0.562500
0.566667
0.558333
0.558333
0.562500
0.566667
0.562500
0.562500
0.558333
0.558333
0.562500
0.566667
0.558333
0.558333
0.562500
0.558333
0.562500
0.529167
0.587500
0.562500
0.558333
0.562500
0.570833
0.558333
0.558333
0.562500
0.562500
0.570833
0.558333
0.562500
0.562500
0.566667
0.562500
0.562500
0.566667
0.566667
0.566667
0.562500
0.562500
0.558333
0.566667
0.566667
1.116667
0.562500
0.562500
0.562500
0.558333
0.562500
0.558333
0.562500
0.562500
0.558333
0.558333
0.562500
0.562500
0.566667
0.562500
0.558333
0.562500
0.562500
0.566667
0.558333
0.562500
0.562500
0.562500
0.570833
0.558333
0.562500
0.562500
0.562500
0.570833
0.562500
0.558333
0.562500
0.566667
0.566667
0.562500
0.558333
0.562500
0.570833
0.558333
0.562500
0.562500
0.566667
0.308333
0.254167
0.562500
0.562500
0.566667
0.570833
0.562500
0.562500
0.562500
0.570833
0.570833
0.562500
0.558333
0.566667
0.570833
0.562500
0.562500
0.558333
0.566667
0.562500
0.570833
0.558333
0.558333
0.562500
0.558333
0.566667
0.566667
0.558333
0.558333
0.562500
0.558333
0.566667
0.558333
0.562500
0.558333
0.562500
0.558333
0.562500
0.558333
0.558333
0.562500
0.570833
0.562500
0.562500
0.562500
0.575000
0.562500
0.566667
0.562500
0.570833
0.566667
0.566667
0.566667
0.570833
0.570833
0.566667
