0.275000
0.487500
0.475000
0.475000
0.483333
0.479167
0.483333
0.479167
0.475000
0.483333
0.600000
0.404167
0.320833
0.587500
0.225000
0.387500
0.295833
0.375000
0.216667
1.079167
0.283333
0.475000
0.479167
0.475000
0.483333
0.475000
0.475000
0.479167
0.483333
0.475000
0.620833
0.454167
0.062500
0.287500
0.487500
0.491667
0.487500
0.483333
0.483333
0.466667
0.170833
0.308333
0.475000
0.479167
0.470833
0.679167
0.270833
0.466667
0.470833
0.470833
0.466667
0.466667
0.466667
0.466667
0.466667
0.466667
0.466667
0.462500
0.466667
0.470833
0.466667
0.470833
0.470833
0.470833
0.466667
0.483333
0.483333
0.483333
0.491667
0.483333
0.483333
0.479167
0.475000
0.479167
0.487500
0.479167
0.487500
0.479167
0.479167
0.495833
0.491667
0.491667
0.491667
0.491667
0.487500
0.487500
0.483333
0.483333
0.483333
0.487500
0.487500
0.479167
0.479167
0.487500
0.491667
0.495833
0.495833
0.491667
0.487500
0.487500
0.487500
0.491667
0.487500
0.491667
0.487500
0.487500
0.487500
0.495833
0.495833
0.508333
0.495833
0.495833
0.491667
0.495833
0.491667
0.491667
0.487500
0.487500
0.487500
0.491667
0.487500
0.491667
0.491667
0.487500
0.487500
0.491667
0.495833
0.491667
0.495833
0.491667
0.491667
0.504167
0.508333
0.508333
0.508333
0.504167
0.508333
0.491667
0.495833
0.504167
0.500000
0.504167
0.500000
0.495833
0.495833
0.495833
0.491667
0.495833
0.495833
0.495833
0.491667
0.491667
0.491667
0.495833
0.500000
0.495833
0.495833
0.491667
0.504167
0.500000
0.495833
0.500000
0.500000
0.500000
0.500000
0.512500
0.512500
0.512500
0.512500
0.508333
0.504167
0.504167
0.504167
0.500000
0.508333
0.504167
0.500000
0.495833
0.375000
0.620833
0.508333
0.495833
0.500000
0.495833
0.504167
0.504167
0.504167
0.504167
0.504167
0.504167
0.508333
0.508333
0.508333
0.512500
0.508333
0.508333
0.512500
0.512500
0.512500
0.512500
0.508333
0.508333
0.504167
0.500000
0.504167
0.508333
0.504167
0.500000
0.500000
0.504167
0.504167
0.504167
0.504167
0.504167
0.508333
0.508333
0.508333
0.512500
0.512500
0.516667
0.504167
0.520833
0.516667
0.520833
0.525000
0.516667
0.512500
0.512500
0.508333
0.508333
0.508333
0.504167
0.512500
0.508333
0.508333
0.504167
0.508333
0.508333
0.504167
0.512500
0.508333
0.512500
0.520833
0.520833
0.516667
0.516667
0.516667
0.516667
0.520833
0.516667
0.520833
0.520833
0.516667
0.516667
0.512500
0.520833
0.516667
0.520833
0.520833
0.529167
0.525000
0.520833
0.516667
0.512500
0.520833
0.520833
0.520833
0.512500
0.516667
0.520833
0.520833
0.520833
0.516667
0.512500
0.512500
0.512500
0.512500
0.512500
0.512500
0.504167
0.508333
0.504167
0.508333
0.508333
0.504167
0.508333
0.508333
0.512500
0.508333
0.516667
0.512500
0.512500
0.512500
0.512500
0.512500
0.520833
0.512500
0.512500
0.512500
0.516667
0.512500
0.512500
0.512500
0.516667
0.516667
0.512500
0.520833
0.512500
0.516667
0.520833
0.512500
0.516667
1.033333
0.525000
0.562500
0.475000
0.512500
0.520833
0.512500
0.508333
0.504167
0.470833
0.545833
0.191667
0.316667
0.216667
0.287500
0.500000
0.504167
0.495833
0.500000
0.291667
0.208333
0.495833
0.500000
0.495833
0.495833
0.495833
0.491667
0.487500
0.491667
0.495833
0.487500
0.491667
0.495833
0.491667
0.495833
0.495833
0.495833
0.495833
0.495833
0.495833
0.495833
0.266667
0.729167
0.604167
0.391667
0.508333
0.491667
0.495833
0.500000
0.495833
0.375000
1.529167
0.304167
0.420833
0.475000
0.795833
0.479167
0.487500
0.491667
0.487500
0.975000
0.483333
0.491667
0.487500
0.483333
0.483333
0.483333
0.487500
0.487500
0.483333
0.487500
0.479167
0.491667
0.487500
0.487500
0.487500
0.487500
0.483333
0.487500
0.491667
0.495833
0.495833
0.495833
0.500000
0.495833
0.491667
0.500000
0.500000
0.504167
0.495833
0.500000
0.491667
0.491667
0.491667
0.270833
0.216667
0.500000
0.495833
0.495833
0.495833
0.495833
0.495833
0.491667
0.491667
0.495833
0.495833
0.500000
0.495833
0.491667
0.491667
0.491667
0.491667
0.487500
0.491667
0.491667
0.491667
0.495833
0.495833
0.491667
0.320833
0.662500
0.504167
0.512500
0.508333
0.500000
0.491667
0.495833
0.491667
0.487500
0.495833
0.479167
0.487500
0.483333
0.487500
0.479167
0.483333
0.304167
0.666667
0.483333
0.479167
0.483333
0.408333
0.558333
0.483333
0.487500
0.483333
0.483333
0.487500
0.491667
0.491667
0.491667
0.487500
0.487500
0.487500
0.495833
0.495833
0.495833
0.491667
0.495833
0.487500
0.483333
0.491667
0.491667
0.495833
0.487500
0.487500
0.487500
0.487500
0.933333
0.391667
0.262500
0.700000
0.316667
0.408333
0.383333
0.470833
0.479167
0.479167
0.483333
0.483333
0.445833
0.600000
0.412500
0.483333
0.479167
0.325000
0.545833
0.087500
0.487500
0.479167
0.479167
0.479167
0.483333
0.487500
0.487500
0.479167
0.483333
0.487500
0.483333
0.554167
0.412500
0.483333
0.233333
0.254167
0.695833
0.266667
0.483333
0.479167
0.487500
0.487500
0.491667
0.487500
0.487500
0.487500
0.487500
0.487500
0.487500
0.491667
0.487500
0.491667
0.487500
0.487500
0.487500
0.487500
0.483333
0.483333
0.487500
0.491667
0.487500
0.483333
0.491667
0.487500
0.487500
0.495833
0.500000
0.491667
0.487500
0.491667
0.508333
0.504167
0.512500
0.508333
0.504167
0.495833
0.495833
0.495833
0.500000
0.491667
0.483333
0.487500
0.483333
0.491667
0.491667
0.495833
0.487500
0.487500
0.495833
0.500000
0.504167
0.508333
0.500000
0.495833
0.495833
0.500000
0.495833
0.491667
0.495833
0.487500
0.491667
0.491667
0.500000
0.504167
0.441667
0.562500
0.504167
0.500000
0.500000
0.504167
0.504167
0.500000
0.504167
0.495833
0.491667
0.500000
0.495833
0.500000
0.495833
0.500000
0.500000
0.504167
0.504167
0.508333
0.508333
0.512500
0.508333
0.504167
0.512500
0.400000
0.612500
0.504167
0.504167
0.500000
0.504167
0.500000
0.500000
0.500000
0.500000
0.500000
0.495833
0.491667
0.500000
0.500000
0.504167
0.508333
0.504167
0.500000
0.508333
0.512500
0.508333
0.520833
0.516667
0.504167
0.500000
0.500000
0.508333
0.500000
0.504167
0.504167
0.500000
0.495833
0.504167
0.504167
0.504167
0.500000
0.504167
0.508333
0.512500
0.508333
0.504167
0.508333
0.212500
0.379167
0.420833
0.504167
0.504167
0.233333
0.275000
0.416667
0.487500
0.208333
0.529167
0.358333
0.491667
0.495833
0.491667
0.495833
0.500000
0.500000
0.495833
0.491667
0.495833
0.495833
0.491667
0.495833
0.495833
0.487500
0.491667
0.495833
0.491667
0.500000
0.491667
0.504167
0.512500
0.512500
0.508333
0.504167
0.508333
0.504167
0.512500
1.004167
0.504167
0.500000
0.500000
0.500000
0.491667
0.491667
0.500000
0.500000
0.500000
0.495833
0.495833
0.504167
0.495833
0.504167
0.495833
0.495833
0.491667
0.495833
0.504167
0.495833
0.504167
0.500000
0.500000
0.504167
0.512500
0.512500
0.516667
0.512500
0.508333
0.504167
0.504167
0.512500
0.504167
0.500000
0.495833
0.500000
0.500000
0.504167
0.504167
0.508333
0.495833
0.504167
0.508333
0.516667
0.512500
0.516667
0.508333
0.504167
0.500000
0.512500
0.500000
0.504167
0.504167
0.500000
0.495833
0.504167
0.504167
0.504167
0.508333
0.508333
0.504167
0.516667
0.520833
0.525000
0.525000
0.520833
0.525000
0.512500
0.516667
0.525000
0.520833
0.520833
0.512500
0.508333
0.504167
0.508333
0.504167
0.508333
0.500000
0.508333
0.500000
0.508333
0.508333
0.504167
0.504167
0.504167
0.512500
0.512500
0.512500
0.508333
0.512500
0.512500
0.391667
0.633333
0.525000
0.520833
0.512500
0.525000
0.529167
0.529167
0.525000
0.520833
0.520833
0.508333
0.512500
0.512500
0.508333
0.504167
0.504167
0.512500
0.520833
0.520833
0.516667
0.516667
0.520833
0.516667
0.525000
0.529167
0.525000
0.520833
0.520833
0.533333
0.545833
0.558333
0.554167
0.545833
0.537500
0.529167
0.525000
0.466667
0.575000
0.520833
0.512500
0.520833
0.516667
0.516667
0.512500
0.516667
0.520833
0.520833
0.520833
0.520833
0.525000
0.525000
0.516667
0.516667
0.520833
0.529167
0.525000
0.520833
0.520833
0.529167
0.520833
0.529167
0.533333
0.533333
0.533333
0.537500
0.541667
0.541667
0.529167
0.533333
0.525000
0.533333
0.533333
0.533333
0.525000
0.525000
0.525000
0.516667
0.525000
0.516667
0.520833
0.508333
0.512500
0.512500
0.512500
0.508333
0.512500
0.520833
0.516667
0.525000
0.525000
0.525000
0.525000
0.529167
0.529167
0.529167
0.537500
0.541667
1.066667
0.545833
0.550000
0.550000
0.541667
0.545833
0.537500
0.525000
0.529167
0.525000
1.058333
0.525000
0.520833
0.520833
0.525000
0.529167
1.041667
0.529167
0.525000
1.070833
0.525000
0.525000
0.529167
0.529167
0.541667
0.537500
0.529167
0.529167
0.533333
0.529167
1.062500
0.533333
0.529167
0.529167
0.541667
0.541667
0.541667
0.920833
0.191667
0.558333
0.545833
0.533333
0.537500
0.525000
0.529167
0.533333
0.529167
0.525000
0.525000
0.525000
0.525000
0.529167
0.829167
0.216667
0.533333
0.533333
0.533333
0.525000
0.529167
0.525000
0.520833
0.525000
0.520833
0.525000
0.525000
0.525000
0.520833
0.529167
0.525000
0.529167
0.520833
0.529167
0.525000
0.516667
0.520833
0.516667
0.516667
0.520833
0.525000
0.520833
0.520833
0.516667
0.525000
0.525000
0.525000
0.520833
0.516667
0.520833
0.520833
0.520833
0.525000
0.516667
0.525000
0.529167
0.529167
0.529167
1.054167
0.541667
0.550000
0.545833
0.541667
0.533333
0.533333
0.525000
0.520833
0.525000
0.516667
0.516667
0.516667
0.516667
0.520833
0.512500
0.520833
0.516667
0.516667
0.516667
0.529167
0.525000
0.529167
0.529167
0.533333
0.529167
0.520833
0.525000
0.529167
0.520833
0.520833
0.520833
0.512500
0.516667
0.512500
0.516667
0.512500
0.508333
0.520833
0.516667
0.516667
0.720833
0.333333
0.525000
0.525000
0.525000
0.541667
0.537500
0.545833
0.537500
0.537500
0.529167
0.525000
0.537500
0.541667
0.550000
0.533333
0.533333
0.533333
0.533333
0.529167
0.529167
0.533333
0.529167
0.533333
0.525000
0.529167
0.529167
0.529167
0.529167
0.525000
0.520833
0.525000
0.529167
0.533333
0.537500
0.533333
0.533333
0.545833
0.537500
1.087500
0.550000
0.554167
0.550000
0.554167
0.554167
0.550000
0.541667
0.533333
0.533333
0.533333
0.533333
0.529167
0.520833
0.533333
0.533333
0.529167
0.537500
0.533333
0.541667
0.533333
0.529167
0.537500
0.529167
0.533333
0.529167
0.529167
0.525000
0.529167
0.529167
0.529167
0.525000
0.529167
0.533333
0.537500
0.537500
0.537500
0.533333
0.537500
0.537500
0.537500
0.541667
0.537500
0.529167
0.537500
0.533333
0.533333
0.529167
0.529167
0.529167
0.529167
0.533333
0.537500
0.533333
0.529167
0.541667
0.537500
0.541667
0.541667
0.537500
0.537500
0.545833
0.558333
0.562500
0.566667
1.104167
0.545833
0.537500
0.537500
0.533333
0.537500
0.529167
0.533333
1.058333
0.537500
0.537500
0.537500
0.537500
0.533333
0.537500
0.533333
0.525000
0.525000
0.537500
0.541667
0.541667
0.541667
0.541667
0.541667
0.545833
0.545833
0.541667
0.541667
0.537500
0.537500
0.537500
0.537500
0.358333
0.204167
0.566667
0.558333
0.558333
0.550000
0.537500
0.537500
0.537500
0.533333
0.525000
0.525000
0.525000
0.525000
0.525000
0.529167
0.529167
0.525000
0.529167
0.533333
0.529167
0.533333
0.541667
0.541667
0.545833
0.541667
0.545833
0.541667
0.550000
0.570833
0.575000
0.575000
0.566667
0.558333
0.550000
0.550000
0.541667
0.533333
1.058333
0.529167
1.062500
0.529167
0.529167
0.533333
0.525000
0.529167
0.525000
0.533333
0.529167
0.537500
0.533333
0.537500
0.529167
0.537500
0.533333
0.537500
0.545833
0.537500
0.550000
0.558333
0.558333
1.095833
0.537500
0.533333
0.537500
