0.491667
0.358333
0.320833
0.325000
0.358333
0.337500
0.320833
0.329167
0.337500
0.320833
0.320833
0.325000
0.337500
0.329167
0.325000
0.445833
1.650000
0.479167
1.304167
0.804167
1.529167
1.420833
0.750000
0.429167
0.787500
0.625000
0.566667
2.045833
0.750000
0.470833
0.404167
0.366667
0.325000
0.241667
0.350000
0.329167
0.316667
0.312500
0.379167
0.375000
0.400000
0.337500
0.333333
0.341667
0.341667
0.337500
0.333333
0.345833
0.333333
0.308333
0.312500
0.429167
0.345833
0.316667
0.354167
0.475000
0.575000
0.354167
0.300000
0.304167
0.316667
0.325000
0.354167
0.358333
0.354167
0.354167
0.358333
0.429167
0.358333
0.366667
0.425000
0.412500
0.325000
0.345833
0.395833
0.337500
0.333333
0.329167
0.358333
0.358333
0.358333
1.970833
0.454167
1.195833
0.866667
0.825000
1.304167
0.908333
0.662500
1.320833
0.445833
1.008333
0.433333
0.950000
1.400000
1.420833
1.004167
1.833333
0.754167
0.929167
0.454167
0.604167
1.516667
0.725000
0.675000
0.408333
0.333333
0.837500
1.458333
0.737500
0.483333
0.362500
0.304167
0.325000
0.320833
0.304167
0.333333
1.429167
0.766667
0.708333
0.695833
0.633333
1.087500
0.733333
1.737500
0.812500
1.229167
0.720833
0.525000
0.379167
0.341667
0.329167
0.245833
1.508333
0.745833
0.462500
0.520833
0.666667
0.416667
1.233333
0.733333
0.645833
0.633333
0.645833
0.633333
1.129167
0.520833
0.487500
0.495833
0.475000
0.487500
0.487500
0.479167
0.483333
0.491667
0.475000
0.487500
0.483333
0.479167
0.487500
0.479167
0.483333
0.483333
0.479167
0.483333
0.483333
0.487500
0.479167
0.479167
0.479167
0.483333
0.479167
0.483333
0.475000
0.479167
0.483333
0.470833
0.458333
0.483333
0.520833
0.491667
0.445833
0.541667
1.587500
0.745833
0.687500
0.391667
1.491667
0.737500
0.675000
1.070833
0.750000
0.408333
0.454167
0.533333
0.412500
1.512500
0.754167
0.416667
0.395833
0.375000
0.387500
1.558333
0.733333
0.470833
1.258333
0.716667
0.583333
0.679167
0.612500
0.620833
0.604167
0.637500
0.620833
0.675000
0.637500
0.662500
0.637500
0.387500
0.350000
0.337500
0.316667
0.337500
0.329167
0.325000
0.337500
0.337500
0.329167
0.333333
0.337500
0.337500
0.333333
0.329167
0.333333
1.691667
0.441667
0.345833
0.341667
0.362500
0.341667
0.395833
0.350000
0.333333
0.387500
0.350000
0.425000
0.370833
0.395833
0.350000
0.316667
0.354167
0.366667
0.333333
0.308333
0.379167
0.391667
0.479167
0.354167
0.333333
0.345833
0.337500
0.341667
0.350000
0.370833
0.354167
0.358333
0.337500
0.333333
0.350000
0.375000
0.341667
0.316667
0.300000
0.350000
0.337500
0.308333
0.308333
0.383333
0.337500
0.358333
0.362500
0.333333
0.354167
0.320833
0.370833
0.341667
0.337500
0.329167
0.454167
0.416667
0.366667
0.333333
0.445833
0.337500
0.333333
0.366667
0.329167
0.395833
0.362500
0.329167
0.400000
0.445833
0.370833
0.337500
0.325000
0.312500
0.329167
0.316667
0.345833
0.333333
0.329167
0.316667
0.354167
0.370833
0.487500
0.354167
0.337500
0.400000
0.375000
0.337500
0.379167
0.345833
0.358333
0.370833
0.329167
0.366667
0.341667
0.316667
0.325000
0.333333
0.358333
0.333333
0.379167
0.350000
0.325000
0.304167
0.354167
0.387500
0.337500
0.316667
0.308333
0.337500
0.350000
0.379167
0.433333
0.341667
0.308333
0.291667
0.333333
0.325000
0.370833
0.341667
0.337500
0.345833
0.375000
0.379167
0.345833
0.379167
0.370833
0.333333
0.320833
0.316667
0.337500
0.337500
0.329167
0.320833
0.391667
0.345833
0.320833
0.550000
0.525000
0.437500
0.425000
0.362500
0.395833
0.358333
0.383333
3.100000
0.441667
1.212500
0.450000
1.425000
0.454167
1.312500
0.445833
1.425000
0.816667
1.708333
0.895833
1.687500
0.458333
1.241667
0.875000
0.437500
1.220833
0.445833
1.225000
0.862500
0.704167
0.662500
0.595833
0.625000
1.495833
0.800000
0.754167
0.862500
1.250000
0.758333
0.458333
0.383333
0.345833
0.320833
0.345833
0.337500
0.429167
0.420833
0.520833
0.425000
0.416667
0.337500
0.245833
0.404167
0.387500
0.345833
0.329167
0.545833
0.391667
0.375000
0.337500
0.312500
0.391667
0.383333
0.341667
0.400000
0.470833
1.612500
0.437500
1.108333
0.741667
0.512500
0.370833
0.325000
0.329167
0.354167
1.695833
0.758333
0.675000
0.795833
0.720833
0.491667
0.370833
0.345833
1.845833
0.775000
0.887500
0.687500
0.825000
0.629167
0.545833
0.716667
0.645833
0.675000
0.704167
0.404167
0.466667
0.362500
0.350000
0.337500
0.345833
0.341667
0.404167
0.350000
0.379167
0.350000
0.387500
0.375000
0.354167
0.366667
0.350000
0.345833
0.350000
0.379167
0.345833
0.362500
0.350000
0.354167
0.341667
0.366667
0.375000
0.370833
0.387500
0.337500
0.379167
0.350000
0.366667
0.350000
0.354167
0.354167
0.333333
0.341667
0.329167
0.395833
0.375000
0.337500
0.366667
0.420833
0.362500
0.333333
0.458333
0.529167
0.358333
0.320833
0.295833
0.312500
0.445833
0.450000
0.429167
0.329167
0.375000
0.366667
0.341667
0.350000
0.341667
0.366667
0.337500
0.395833
0.395833
0.370833
0.470833
0.345833
0.312500
0.325000
0.333333
0.333333
0.383333
0.375000
0.341667
0.366667
0.358333
0.325000
0.583333
0.362500
0.333333
0.333333
0.341667
0.337500
0.345833
0.354167
0.333333
0.362500
0.341667
0.350000
0.341667
0.429167
0.450000
0.379167
0.350000
0.354167
0.366667
0.341667
0.337500
0.350000
0.387500
0.408333
0.404167
0.375000
0.345833
0.337500
0.412500
0.379167
0.329167
0.366667
0.370833
0.425000
0.345833
0.325000
0.329167
0.341667
0.337500
0.362500
0.391667
0.337500
0.329167
0.329167
0.358333
0.387500
0.341667
0.383333
0.370833
0.337500
0.420833
0.429167
0.370833
0.345833
0.354167
0.454167
0.329167
0.308333
0.370833
0.325000
0.291667
0.345833
0.383333
0.429167
0.345833
0.425000
0.370833
0.420833
0.450000
0.354167
0.350000
0.341667
0.354167
0.362500
0.395833
0.412500
0.358333
0.304167
0.395833
0.366667
0.341667
0.420833
0.416667
0.370833
0.329167
0.333333
0.341667
0.354167
0.337500
0.375000
0.358333
0.383333
0.395833
0.354167
0.333333
0.379167
0.370833
0.475000
0.395833
0.558333
0.379167
0.320833
0.325000
0.350000
0.362500
0.362500
0.375000
0.362500
0.358333
0.345833
0.379167
0.387500
0.329167
0.345833
0.312500
0.362500
0.345833
0.508333
0.350000
0.333333
0.337500
0.354167
0.383333
0.341667
0.350000
0.341667
0.408333
0.387500
0.433333
0.329167
0.366667
0.387500
0.350000
0.429167
0.395833
0.370833
0.345833
0.379167
0.333333
0.408333
0.450000
0.450000
0.387500
0.333333
0.362500
0.370833
0.350000
0.358333
0.429167
0.450000
0.345833
0.575000
0.362500
0.345833
0.370833
0.337500
0.345833
0.370833
0.358333
0.370833
0.341667
0.387500
0.437500
0.358333
0.337500
0.354167
0.333333
0.391667
0.420833
0.358333
0.420833
0.366667
0.495833
0.395833
0.354167
0.358333
0.370833
0.433333
0.462500
0.412500
0.358333
0.333333
0.350000
0.337500
0.391667
0.379167
0.341667
0.333333
0.345833
0.362500
0.366667
0.325000
0.341667
0.433333
0.350000
0.400000
0.395833
0.362500
0.333333
0.345833
0.333333
0.520833
0.383333
0.412500
0.366667
0.341667
0.370833
0.358333
0.366667
0.387500
0.333333
0.404167
0.395833
0.354167
0.375000
0.437500
0.412500
0.354167
0.441667
0.350000
0.337500
0.329167
0.358333
0.350000
0.354167
0.425000
0.358333
0.345833
0.341667
0.329167
0.383333
0.379167
0.333333
0.383333
0.437500
0.354167
0.337500
0.400000
0.416667
0.362500
0.345833
0.354167
0.337500
0.366667
0.370833
0.404167
0.487500
0.479167
0.416667
0.420833
0.341667
0.300000
0.312500
0.379167
0.350000
0.354167
0.366667
0.500000
0.416667
0.387500
0.333333
0.320833
0.329167
0.320833
0.320833
0.329167
0.341667
0.333333
0.383333
0.341667
0.337500
0.329167
0.320833
0.341667
0.400000
0.366667
0.400000
0.350000
0.333333
0.408333
0.341667
0.325000
0.337500
0.333333
0.333333
0.300000
0.316667
0.333333
0.333333
0.308333
0.275000
0.300000
0.320833
0.295833
0.325000
0.362500
0.333333
0.316667
0.325000
0.329167
0.316667
0.350000
0.341667
0.337500
0.320833
0.320833
0.354167
0.345833
0.362500
0.345833
0.341667
0.329167
0.316667
0.404167
1.695833
1.616667
1.283333
1.204167
0.900000
0.908333
0.900000
0.883333
0.862500
0.912500
0.658333
1.283333
0.783333
0.950000
0.754167
1.245833
0.908333
0.891667
0.854167
0.833333
0.804167
0.808333
0.716667
0.700000
1.266667
0.754167
0.733333
0.875000
0.720833
0.920833
1.187500
0.904167
0.879167
0.866667
0.870833
0.858333
0.858333
0.862500
0.858333
0.858333
0.862500
0.862500
0.858333
0.866667
0.866667
0.862500
0.866667
0.866667
0.862500
0.858333
0.866667
0.458333
0.329167
0.329167
0.345833
0.483333
0.554167
0.525000
0.512500
0.441667
0.445833
0.550000
1.233333
0.762500
0.641667
0.654167
0.962500
0.720833
0.850000
1.304167
0.770833
0.654167
0.612500
0.620833
0.625000
0.641667
0.675000
0.650000
0.520833
0.375000
0.337500
0.329167
0.316667
0.333333
0.333333
0.316667
0.320833
0.358333
0.341667
0.337500
0.366667
0.337500
0.329167
0.345833
0.370833
0.354167
0.366667
0.366667
0.362500
0.395833
0.370833
0.354167
0.354167
0.329167
0.391667
0.416667
0.362500
0.337500
0.354167
0.341667
0.329167
0.320833
0.333333
0.333333
0.458333
0.441667
1.837500
0.454167
1.170833
0.766667
0.833333
0.804167
0.887500
0.716667
0.783333
0.891667
0.687500
0.795833
0.787500
0.887500
0.708333
0.783333
0.891667
0.691667
0.795833
0.795833
0.791667
0.795833
0.804167
0.783333
0.795833
0.791667
0.804167
0.779167
0.791667
0.791667
0.787500
0.791667
0.791667
0.791667
0.441667
0.554167
0.675000
0.633333
0.579167
0.600000
0.708333
0.612500
1.354167
0.891667
0.733333
0.791667
0.679167
0.700000
0.412500
0.433333
0.375000
0.316667
0.304167
0.350000
0.370833
0.341667
0.341667
0.345833
0.362500
0.337500
0.333333
0.495833
0.366667
0.308333
0.325000
0.429167
0.341667
1.125000
1.154167
0.804167
0.712500
0.608333
0.595833
0.650000
0.550000
0.375000
0.308333
0.366667
0.383333
1.004167
0.425000
0.345833
0.345833
0.400000
0.408333
0.337500
0.316667
0.345833
0.362500
0.354167
0.350000
0.354167
0.412500
0.441667
1.220833
0.891667
0.975000
0.779167
0.854167
0.858333
0.862500
0.845833
0.854167
0.850000
0.854167
0.850000
0.841667
0.445833
0.604167
0.595833
0.604167
0.633333
0.637500
0.379167
0.345833
1.345833
1.004167
1.129167
0.716667
0.583333
0.641667
0.637500
0.666667
0.650000
1.179167
0.812500
0.470833
0.358333
0.320833
1.275000
0.812500
0.420833
0.350000
1.200000
1.125000
0.883333
0.737500
0.587500
0.608333
0.570833
0.450000
0.375000
0.433333
0.387500
0.337500
0.354167
0.350000
0.320833
0.312500
0.320833
0.329167
0.354167
0.350000
0.387500
0.383333
0.345833
0.345833
0.337500
0.350000
0.366667
0.316667
0.304167
0.329167
0.400000
0.383333
0.379167
0.329167
0.325000
0.366667
0.362500
0.354167
0.370833
0.475000
0.391667
0.337500
0.416667
0.337500
0.333333
0.441667
0.408333
0.445833
0.362500
0.408333
0.366667
0.337500
0.341667
0.337500
0.325000
0.329167
0.362500
0.379167
0.425000
0.404167
0.470833
0.345833
0.295833
0.329167
0.333333
0.400000
0.395833
0.470833
0.350000
0.312500
0.404167
0.345833
0.312500
0.325000
0.312500
0.329167
0.354167
0.366667
0.329167
0.333333
0.362500
0.333333
0.333333
0.383333
0.354167
0.333333
0.341667
0.370833
0.337500
0.437500
0.529167
0.350000
0.329167
0.400000
0.333333
0.320833
0.575000
0.395833
0.420833
1.166667
0.441667
1.537500
0.454167
1.333333
0.450000
1.275000
0.962500
0.616667
0.545833
0.379167
0.325000
0.358333
0.595833
0.516667
0.500000
0.508333
0.466667
0.475000
0.491667
0.470833
0.483333
0.483333
0.479167
0.479167
0.483333
0.475000
0.483333
0.479167
0.479167
0.483333
0.479167
0.483333
0.479167
0.483333
0.475000
0.483333
0.479167
0.479167
0.479167
