0.350000
0.320833
0.316667
0.308333
0.333333
0.329167
0.300000
0.279167
0.279167
0.416667
0.329167
0.362500
0.562500
0.462500
0.416667
0.358333
0.383333
0.308333
0.304167
0.379167
0.337500
0.304167
0.350000
0.375000
0.333333
0.308333
0.300000
0.383333
0.316667
0.350000
0.304167
0.345833
0.383333
0.366667
0.358333
0.320833
0.320833
0.358333
0.337500
0.304167
0.366667
0.337500
0.341667
0.362500
0.408333
0.479167
0.320833
1.304167
1.295833
0.687500
0.850000
0.712500
0.812500
0.929167
0.812500
0.808333
0.791667
0.762500
0.750000
0.695833
0.675000
0.658333
0.654167
0.783333
0.708333
0.691667
1.029167
0.845833
0.750000
0.758333
0.750000
0.745833
0.745833
0.741667
0.745833
0.745833
0.733333
0.750000
0.737500
0.733333
0.741667
0.737500
0.737500
0.737500
0.733333
0.737500
0.733333
0.737500
0.737500
0.733333
0.729167
0.733333
0.733333
0.737500
0.729167
0.737500
0.733333
0.733333
0.729167
0.733333
0.733333
0.733333
0.729167
0.737500
0.733333
0.733333
0.737500
0.691667
0.779167
0.737500
0.741667
0.466667
0.975000
0.758333
0.737500
0.758333
0.758333
0.741667
0.758333
0.758333
0.750000
0.754167
0.754167
0.737500
0.758333
0.745833
0.741667
0.741667
0.729167
0.741667
0.737500
0.733333
0.687500
0.775000
0.733333
0.733333
0.729167
0.733333
0.733333
0.733333
0.733333
0.733333
0.733333
0.737500
0.737500
0.425000
0.487500
0.525000
0.570833
0.583333
0.579167
0.595833
0.591667
0.587500
0.591667
0.591667
0.595833
0.595833
0.600000
0.587500
0.604167
0.591667
0.600000
0.600000
0.604167
0.591667
0.600000
0.591667
0.595833
0.591667
0.600000
0.595833
0.600000
0.591667
0.595833
0.595833
0.595833
0.595833
0.595833
0.591667
0.591667
0.591667
0.595833
0.595833
0.591667
0.591667
0.587500
0.591667
0.591667
0.587500
0.591667
0.587500
0.591667
0.591667
0.587500
0.587500
0.587500
0.587500
0.583333
0.591667
0.583333
0.587500
0.587500
0.583333
0.587500
0.587500
0.583333
0.583333
0.587500
0.583333
0.579167
0.612500
0.595833
0.587500
0.587500
0.583333
0.583333
0.583333
0.587500
0.583333
0.583333
0.583333
0.583333
0.583333
0.579167
0.587500
0.583333
0.579167
0.583333
0.583333
0.583333
0.583333
0.583333
0.587500
0.579167
0.587500
0.579167
0.579167
0.591667
0.579167
0.583333
0.579167
0.583333
0.583333
0.587500
0.583333
0.575000
0.575000
0.591667
0.583333
0.579167
0.579167
0.575000
0.587500
0.591667
0.579167
0.583333
0.575000
0.583333
0.579167
1.370833
0.679167
0.758333
1.058333
0.712500
0.695833
0.691667
0.641667
0.900000
0.833333
0.625000
0.900000
0.841667
0.625000
0.762500
0.829167
0.829167
0.783333
0.775000
0.758333
0.745833
0.754167
0.750000
0.745833
0.737500
0.741667
0.737500
0.745833
0.745833
0.745833
0.745833
0.741667
0.745833
0.745833
0.750000
0.737500
0.754167
0.750000
0.745833
0.745833
0.733333
0.750000
0.745833
0.745833
0.741667
0.750000
0.745833
0.745833
0.745833
0.733333
0.425000
0.491667
0.508333
0.545833
0.658333
0.545833
0.600000
0.587500
0.570833
1.204167
0.429167
1.045833
0.687500
0.600000
0.400000
0.487500
0.758333
0.620833
1.420833
0.437500
0.887500
0.679167
0.629167
0.633333
1.095833
0.662500
0.420833
0.495833
0.616667
0.508333
0.445833
1.150000
0.691667
0.441667
0.366667
1.458333
0.691667
0.462500
0.445833
0.350000
1.262500
0.441667
1.083333
0.679167
0.470833
0.375000
0.537500
0.687500
0.791667
0.625000
0.616667
0.570833
0.495833
0.537500
0.383333
0.691667
0.662500
0.670833
0.575000
0.558333
0.733333
0.462500
0.637500
0.320833
0.400000
0.637500
0.358333
0.333333
0.370833
0.350000
0.325000
0.420833
0.337500
0.304167
0.325000
0.312500
0.312500
0.308333
0.308333
0.320833
0.312500
0.308333
0.316667
0.316667
0.312500
0.320833
0.320833
0.329167
0.379167
0.341667
0.304167
0.300000
0.329167
0.325000
0.366667
0.354167
0.416667
0.333333
0.320833
0.354167
0.341667
0.333333
0.312500
0.341667
0.337500
0.316667
0.300000
0.312500
0.337500
0.316667
0.308333
0.312500
0.308333
0.304167
0.320833
0.316667
0.325000
0.329167
0.354167
0.358333
0.320833
0.337500
0.416667
0.337500
0.304167
0.300000
0.308333
0.308333
0.308333
0.320833
0.320833
0.354167
0.341667
0.320833
0.312500
0.312500
0.345833
0.345833
0.325000
0.325000
0.312500
0.354167
0.333333
0.308333
0.304167
0.308333
0.312500
0.308333
0.333333
0.316667
0.370833
0.354167
0.316667
0.345833
0.333333
0.312500
0.333333
0.329167
0.308333
0.337500
0.316667
0.279167
0.316667
0.341667
0.325000
0.316667
0.312500
0.362500
0.329167
0.316667
0.316667
0.308333
0.308333
0.316667
0.329167
0.362500
0.383333
0.554167
0.337500
0.504167
0.350000
0.304167
0.287500
0.312500
0.341667
0.333333
0.304167
0.316667
0.304167
0.283333
0.325000
0.358333
0.325000
0.345833
0.362500
0.420833
0.375000
0.425000
0.329167
0.300000
0.450000
0.387500
0.320833
0.308333
0.387500
0.325000
0.300000
0.300000
0.283333
0.300000
0.320833
0.316667
0.341667
0.345833
0.316667
0.316667
0.304167
0.333333
0.337500
0.304167
0.304167
0.391667
0.325000
0.304167
0.312500
0.308333
0.304167
0.291667
0.295833
0.316667
0.304167
0.345833
0.333333
0.312500
0.320833
0.312500
0.329167
0.362500
0.358333
0.354167
0.345833
0.312500
0.316667
0.325000
0.287500
0.279167
0.316667
0.308333
0.325000
0.329167
0.333333
0.391667
0.337500
0.320833
0.358333
0.391667
0.333333
0.316667
0.308333
0.304167
0.358333
0.337500
0.312500
0.312500
0.308333
0.316667
0.316667
0.308333
0.320833
0.316667
0.320833
0.325000
0.320833
0.304167
0.350000
0.354167
0.325000
0.333333
0.341667
0.362500
0.345833
0.312500
0.308333
0.312500
0.308333
0.316667
0.325000
0.329167
0.329167
0.316667
0.325000
0.329167
0.325000
0.308333
0.308333
0.350000
0.341667
0.308333
0.308333
0.316667
0.295833
0.304167
0.329167
0.325000
0.329167
0.354167
0.337500
0.308333
0.375000
0.554167
0.329167
0.287500
0.316667
0.391667
0.387500
0.370833
0.387500
0.412500
0.362500
0.341667
0.304167
0.350000
0.425000
0.391667
0.345833
0.320833
0.325000
0.295833
0.333333
0.350000
0.312500
0.283333
0.287500
0.337500
0.337500
0.312500
0.291667
0.295833
0.308333
0.308333
0.345833
0.350000
0.312500
0.304167
0.304167
0.362500
0.337500
0.312500
0.354167
0.337500
0.329167
0.333333
0.320833
0.370833
0.400000
0.366667
0.341667
0.366667
0.370833
0.325000
0.341667
0.375000
0.345833
0.316667
0.316667
0.316667
0.379167
0.420833
0.337500
0.325000
0.345833
0.337500
0.345833
0.387500
0.345833
0.350000
0.333333
0.320833
0.312500
0.362500
0.325000
0.295833
0.316667
0.312500
0.316667
0.337500
0.333333
0.358333
0.329167
0.308333
0.287500
0.287500
0.333333
0.320833
0.354167
0.433333
0.379167
0.404167
0.425000
0.408333
0.420833
0.341667
0.354167
0.379167
0.479167
0.354167
0.316667
0.329167
0.337500
0.337500
0.370833
0.333333
0.341667
0.370833
0.345833
0.325000
0.375000
0.437500
0.316667
0.295833
0.312500
0.300000
0.354167
0.383333
0.333333
0.304167
0.316667
0.316667
0.295833
0.316667
0.325000
0.425000
0.475000
0.329167
0.295833
0.308333
0.300000
0.308333
0.325000
0.325000
0.300000
0.341667
0.325000
0.316667
0.329167
0.370833
0.345833
0.320833
0.387500
0.366667
0.350000
0.358333
0.383333
0.337500
0.316667
0.333333
0.387500
0.391667
0.320833
0.350000
0.300000
0.358333
0.345833
0.329167
0.337500
0.358333
0.329167
0.312500
0.312500
0.308333
0.362500
0.362500
0.337500
0.320833
0.329167
0.333333
0.308333
0.320833
0.316667
0.325000
0.312500
0.308333
0.320833
0.300000
0.312500
0.350000
0.358333
0.329167
0.333333
0.325000
0.316667
0.358333
0.358333
0.337500
0.383333
0.333333
0.312500
0.312500
0.308333
0.312500
0.304167
0.304167
0.300000
0.345833
0.400000
0.333333
0.341667
0.350000
0.391667
0.341667
0.341667
0.333333
0.341667
0.408333
0.358333
0.329167
0.391667
0.370833
0.329167
0.362500
0.379167
0.333333
0.329167
0.400000
0.333333
0.320833
0.304167
0.304167
0.325000
0.391667
0.312500
0.312500
0.312500
0.304167
0.325000
0.316667
0.291667
0.287500
0.341667
0.370833
0.329167
0.329167
0.316667
0.325000
0.362500
0.333333
0.333333
0.345833
0.337500
0.329167
0.329167
0.329167
0.537500
0.345833
0.295833
0.312500
0.325000
0.291667
0.275000
0.316667
0.345833
0.375000
0.333333
0.275000
0.279167
0.312500
0.316667
0.358333
0.358333
0.320833
0.412500
0.362500
0.370833
0.354167
0.329167
0.345833
0.325000
0.350000
0.325000
0.329167
0.333333
0.320833
0.429167
0.520833
0.333333
0.295833
0.312500
0.345833
0.391667
0.354167
0.320833
0.345833
0.354167
0.316667
0.375000
0.316667
0.341667
0.325000
0.337500
0.325000
0.320833
0.312500
0.362500
0.308333
0.358333
0.337500
0.329167
0.337500
0.404167
0.341667
0.316667
0.329167
0.337500
0.325000
0.316667
0.329167
0.341667
0.341667
0.320833
0.304167
0.320833
0.325000
0.429167
0.387500
0.341667
0.329167
0.320833
0.308333
0.341667
0.362500
0.333333
0.312500
0.312500
0.329167
0.329167
0.320833
0.312500
0.304167
0.316667
0.312500
0.329167
0.341667
0.333333
0.379167
0.341667
0.329167
0.354167
0.354167
0.316667
0.320833
0.337500
0.304167
0.287500
0.333333
0.350000
0.429167
0.420833
0.354167
0.345833
0.320833
0.345833
0.300000
0.308333
0.329167
0.354167
0.345833
0.312500
0.291667
0.308333
0.325000
0.312500
0.354167
0.341667
0.320833
0.325000
0.329167
0.362500
0.404167
0.366667
0.408333
0.325000
0.325000
0.325000
0.333333
0.329167
0.387500
0.416667
0.337500
0.320833
0.350000
0.345833
0.333333
0.345833
0.320833
0.325000
0.325000
0.320833
0.316667
0.304167
0.304167
0.312500
0.325000
0.329167
0.329167
0.366667
0.316667
0.287500
0.291667
0.320833
0.329167
0.391667
0.350000
0.329167
0.333333
0.312500
0.341667
0.375000
0.362500
0.333333
0.333333
0.333333
0.320833
0.316667
0.337500
0.345833
0.333333
0.350000
0.325000
0.370833
0.366667
0.312500
0.329167
0.354167
0.354167
0.341667
0.329167
0.337500
0.337500
0.316667
0.329167
0.316667
0.300000
0.354167
0.337500
0.308333
0.320833
0.325000
0.329167
0.329167
0.333333
0.329167
0.387500
0.358333
0.320833
0.387500
0.408333
0.333333
0.320833
0.320833
0.316667
0.375000
0.337500
0.316667
0.320833
0.320833
0.337500
0.333333
0.316667
0.350000
0.325000
0.320833
0.325000
0.325000
0.308333
0.287500
0.341667
0.358333
0.350000
0.325000
0.320833
0.312500
0.329167
0.370833
0.379167
0.366667
0.337500
0.408333
0.358333
0.325000
0.391667
0.370833
0.333333
0.358333
0.362500
0.329167
0.300000
0.312500
0.395833
0.366667
0.333333
0.341667
0.341667
0.312500
0.316667
0.312500
0.337500
0.333333
0.312500
0.312500
0.308333
0.304167
0.308333
0.320833
0.316667
0.325000
0.345833
0.337500
0.337500
0.325000
0.341667
0.345833
0.333333
0.358333
0.337500
0.341667
0.362500
0.329167
0.320833
0.308333
0.366667
0.354167
0.337500
0.358333
0.354167
0.329167
0.337500
0.358333
0.341667
0.383333
0.354167
0.312500
0.329167
0.341667
0.354167
0.337500
0.316667
0.375000
0.345833
0.325000
0.312500
0.320833
0.329167
0.325000
0.366667
0.345833
0.316667
0.395833
0.416667
0.375000
0.320833
0.345833
0.358333
0.333333
0.379167
0.350000
0.350000
0.341667
0.325000
0.325000
0.320833
0.320833
0.304167
0.316667
0.325000
0.325000
0.316667
0.295833
0.295833
0.312500
0.320833
0.358333
0.345833
0.325000
0.341667
0.333333
0.316667
0.308333
0.316667
0.308333
0.308333
0.320833
0.350000
0.337500
0.320833
0.362500
0.391667
0.350000
0.333333
0.345833
0.333333
0.337500
0.325000
0.325000
0.316667
0.304167
0.325000
0.341667
0.329167
0.366667
0.345833
0.350000
0.458333
0.337500
0.320833
0.333333
0.341667
0.350000
0.412500
0.362500
0.341667
0.337500
0.337500
0.358333
0.362500
0.325000
0.325000
0.345833
0.337500
0.329167
0.316667
0.304167
0.312500
0.287500
0.308333
0.320833
0.312500
0.316667
0.308333
0.320833
0.320833
0.295833
0.312500
0.337500
0.333333
0.362500
0.358333
0.329167
0.337500
0.333333
0.358333
0.345833
0.337500
0.333333
0.308333
0.312500
0.333333
0.350000
0.337500
0.333333
0.350000
0.320833
0.345833
0.316667
0.358333
0.350000
0.325000
0.333333
0.329167
0.320833
0.333333
0.400000
0.345833
0.350000
0.345833
0.341667
0.341667
0.345833
0.329167
0.316667
0.320833
0.312500
0.316667
0.333333
0.325000
0.308333
0.304167
0.341667
0.345833
0.312500
0.329167
0.358333
0.350000
0.304167
0.325000
0.375000
0.337500
0.325000
0.333333
0.333333
0.362500
0.300000
0.316667
0.312500
0.320833
0.370833
0.354167
0.329167
0.333333
0.325000
0.325000
0.308333
0.354167
0.404167
0.329167
0.325000
0.345833
0.329167
0.333333
0.325000
0.325000
0.320833
0.354167
0.345833
0.329167
0.325000
0.312500
0.320833
0.333333
0.366667
0.450000
0.337500
0.320833
0.350000
0.429167
0.320833
0.383333
0.366667
0.320833
0.329167
0.333333
0.366667
0.362500
0.329167
0.312500
0.316667
0.325000
0.316667
0.320833
0.333333
0.325000
0.312500
0.329167
0.329167
0.320833
0.316667
0.308333
0.304167
0.316667
0.316667
0.308333
0.341667
0.429167
0.345833
0.312500
0.345833
0.320833
0.341667
0.333333
0.354167
0.341667
0.341667
0.350000
0.325000
0.345833
0.341667
0.354167
0.366667
0.345833
0.312500
0.325000
0.341667
0.337500
0.329167
0.329167
0.304167
0.308333
0.320833
0.325000
0.337500
0.387500
0.462500
0.358333
0.329167
0.308333
0.325000
0.375000
0.358333
0.341667
0.329167
0.316667
0.341667
0.333333
0.362500
0.345833
0.320833
0.341667
0.325000
0.320833
0.320833
0.308333
0.316667
0.304167
0.312500
0.325000
0.320833
0.312500
0.325000
0.300000
0.312500
0.333333
0.329167
0.312500
0.316667
0.316667
0.316667
0.337500
0.458333
0.416667
0.425000
0.337500
0.316667
0.416667
0.345833
0.354167
0.341667
0.325000
0.316667
0.312500
0.312500
0.308333
0.316667
0.350000
0.345833
0.329167
0.325000
0.320833
0.312500
0.329167
0.375000
0.420833
0.337500
0.320833
0.337500
0.333333
0.341667
0.350000
0.370833
0.333333
0.375000
0.370833
0.337500
0.345833
0.329167
0.354167
0.354167
0.333333
0.329167
0.345833
0.333333
0.320833
0.320833
0.316667
0.312500
0.320833
0.316667
0.308333
0.312500
0.320833
0.325000
0.354167
0.341667
0.400000
0.350000
0.525000
0.350000
0.337500
0.341667
0.350000
0.341667
0.333333
0.333333
0.333333
0.350000
0.333333
0.333333
0.329167
0.375000
0.362500
0.320833
0.295833
0.312500
0.325000
0.312500
0.320833
0.325000
0.300000
0.312500
0.337500
0.333333
0.320833
0.312500
0.329167
