0.558333
0.591667
0.583333
0.608333
0.558333
0.633333
0.579167
0.783333
0.200000
0.583333
0.320833
0.500000
0.495833
1.254167
0.587500
0.591667
1.170833
1.175000
1.175000
1.170833
0.579167
0.225000
0.358333
0.587500
0.600000
0.595833
0.591667
0.587500
0.587500
0.591667
0.587500
0.591667
0.583333
0.595833
0.587500
0.587500
0.775000
0.391667
0.583333
0.575000
0.583333
0.595833
0.600000
0.583333
0.587500
0.587500
0.583333
0.583333
0.583333
0.583333
0.583333
0.583333
0.583333
0.579167
0.433333
0.804167
0.516667
0.587500
0.320833
0.262500
0.583333
0.587500
0.587500
0.579167
0.566667
0.616667
0.804167
0.270833
0.387500
0.275000
0.512500
0.658333
0.495833
0.683333
0.508333
0.995833
0.341667
0.733333
0.383333
0.237500
0.350000
0.683333
0.479167
0.600000
0.587500
1.154167
1.170833
0.583333
0.595833
0.600000
0.583333
0.579167
0.587500
0.587500
0.533333
0.641667
1.166667
0.937500
0.345833
0.358333
0.200000
0.516667
0.329167
0.208333
0.420833
0.787500
0.566667
0.600000
0.600000
0.575000
0.604167
1.316667
0.400000
1.166667
0.641667
0.545833
0.629167
0.554167
0.629167
0.566667
0.604167
0.583333
0.595833
0.633333
0.525000
0.591667
0.575000
0.595833
0.283333
0.316667
0.600000
0.583333
0.458333
0.295833
0.516667
0.516667
0.295833
0.154167
0.666667
0.345833
0.283333
0.316667
0.816667
0.491667
0.637500
0.429167
0.712500
0.316667
0.458333
0.662500
0.304167
0.620833
0.312500
0.595833
0.508333
0.183333
0.329167
0.620833
0.275000
0.933333
0.408333
0.654167
0.645833
0.258333
0.237500
0.808333
0.241667
0.837500
0.600000
0.379167
0.362500
0.462500
0.295833
0.779167
0.408333
0.920833
0.683333
0.570833
0.220833
0.320833
0.220833
0.354167
0.383333
0.725000
0.633333
0.350000
0.650000
0.329167
0.283333
0.337500
0.200000
0.412500
0.250000
0.687500
0.775000
0.575000
0.570833
1.183333
1.183333
0.570833
1.166667
0.495833
0.812500
1.612500
0.583333
0.583333
0.308333
0.587500
0.204167
0.466667
0.325000
0.425000
0.370833
1.320833
0.300000
0.733333
0.675000
1.287500
1.158333
1.170833
1.750000
1.175000
1.762500
1.766667
1.179167
0.583333
1.170833
0.583333
0.583333
0.600000
0.608333
0.595833
0.591667
0.595833
0.591667
0.591667
0.591667
0.591667
0.595833
0.587500
0.591667
0.587500
0.587500
0.595833
0.587500
0.587500
0.575000
0.587500
0.583333
0.604167
0.604167
0.595833
0.604167
0.291667
0.275000
0.587500
0.587500
0.587500
0.583333
0.595833
0.591667
0.591667
0.595833
0.575000
0.575000
0.604167
0.612500
0.595833
0.595833
0.670833
0.512500
0.583333
0.591667
0.595833
0.358333
0.225000
0.587500
0.587500
0.591667
0.583333
0.579167
0.583333
0.591667
0.591667
0.583333
0.604167
0.595833
0.604167
0.591667
0.600000
0.579167
0.591667
0.587500
0.345833
0.825000
0.308333
0.362500
0.691667
0.387500
0.579167
0.637500
0.629167
0.458333
0.587500
0.595833
0.583333
0.287500
0.300000
0.266667
0.283333
0.629167
0.329167
0.404167
0.295833
0.608333
0.679167
0.583333
0.587500
0.583333
0.583333
0.583333
0.583333
0.579167
0.575000
0.587500
0.600000
0.591667
0.583333
0.591667
0.587500
0.587500
0.587500
0.587500
0.591667
0.587500
0.583333
0.591667
0.587500
0.587500
0.583333
0.591667
0.587500
0.579167
0.583333
0.587500
0.600000
0.591667
0.583333
0.587500
0.604167
0.608333
0.595833
0.595833
0.595833
0.591667
0.595833
0.595833
0.595833
0.595833
0.591667
0.591667
0.595833
0.591667
0.587500
0.583333
0.591667
0.591667
0.591667
0.600000
0.604167
0.608333
0.608333
0.595833
0.591667
0.587500
0.591667
0.591667
0.587500
0.587500
0.587500
0.587500
0.587500
0.587500
0.591667
0.587500
0.587500
0.229167
0.358333
0.595833
0.591667
0.487500
0.312500
0.379167
0.591667
0.587500
0.591667
0.350000
0.237500
0.587500
0.591667
0.595833
0.587500
0.595833
0.595833
0.587500
0.587500
0.595833
0.595833
0.587500
0.591667
0.604167
0.600000
0.591667
0.595833
0.587500
0.595833
0.591667
0.595833
0.595833
0.591667
0.587500
0.591667
0.587500
0.579167
0.575000
0.595833
0.600000
0.591667
0.587500
0.591667
0.587500
0.591667
0.591667
0.587500
0.579167
0.591667
0.587500
0.587500
0.583333
0.591667
0.587500
0.587500
0.575000
0.587500
0.583333
0.583333
0.583333
0.583333
0.591667
0.579167
0.579167
0.575000
0.591667
0.583333
0.583333
0.579167
0.595833
0.595833
0.591667
0.595833
0.587500
0.362500
0.233333
0.208333
0.375000
0.583333
0.587500
0.583333
0.670833
0.500000
0.291667
0.295833
0.595833
0.575000
0.587500
0.587500
0.583333
0.575000
0.575000
0.587500
0.587500
0.579167
0.591667
0.600000
0.591667
0.587500
0.591667
0.587500
0.591667
0.587500
0.587500
0.587500
0.591667
0.587500
0.587500
0.579167
0.579167
0.583333
0.591667
0.587500
0.583333
0.595833
0.600000
0.595833
0.587500
0.591667
0.591667
0.591667
0.591667
0.591667
0.587500
0.591667
0.595833
0.587500
0.575000
0.583333
0.595833
0.608333
0.595833
0.591667
0.587500
0.591667
0.587500
0.591667
0.587500
0.595833
0.587500
0.587500
0.587500
0.591667
0.587500
0.587500
0.579167
0.583333
0.591667
0.583333
0.587500
0.587500
0.595833
0.595833
0.587500
0.583333
0.587500
0.587500
0.595833
0.587500
0.583333
0.587500
0.587500
0.600000
0.879167
0.450000
0.700000
0.212500
0.262500
0.325000
0.329167
0.262500
0.716667
0.370833
0.462500
0.679167
0.233333
0.587500
0.579167
0.416667
0.404167
0.362500
0.266667
0.229167
0.233333
0.450000
0.212500
0.250000
0.287500
0.358333
0.283333
0.216667
0.141667
0.579167
0.216667
0.429167
0.500000
0.375000
0.204167
0.829167
0.241667
0.716667
0.562500
0.908333
0.587500
0.995833
0.387500
0.220833
0.358333
0.366667
0.275000
0.395833
0.470833
0.541667
0.912500
0.575000
0.579167
0.575000
0.575000
0.570833
0.362500
0.212500
0.225000
0.225000
0.366667
0.225000
0.516667
1.304167
0.570833
0.291667
0.354167
1.070833
0.337500
0.508333
0.870833
0.570833
1.158333
1.137500
1.150000
0.570833
0.787500
0.204167
0.591667
0.725000
0.575000
0.566667
0.570833
0.575000
0.570833
0.570833
0.570833
0.562500
0.570833
0.579167
0.570833
0.566667
0.566667
0.570833
0.575000
0.570833
0.562500
0.566667
0.566667
0.516667
0.629167
0.562500
0.495833
0.383333
0.254167
0.225000
0.258333
0.358333
0.300000
0.566667
0.566667
0.575000
0.300000
0.279167
0.200000
0.295833
0.450000
0.479167
0.275000
0.566667
0.566667
0.562500
0.566667
0.525000
0.479167
0.437500
0.225000
0.595833
0.562500
0.566667
0.579167
0.562500
0.566667
0.566667
0.566667
0.883333
0.737500
0.304167
0.350000
0.845833
0.079167
0.187500
0.545833
0.650000
0.216667
1.266667
0.716667
0.558333
0.562500
0.570833
0.570833
0.566667
0.575000
0.554167
0.562500
0.566667
0.566667
0.566667
0.570833
0.558333
0.570833
0.562500
0.562500
0.575000
0.562500
0.562500
0.483333
0.841667
0.450000
0.254167
0.570833
0.245833
0.570833
0.658333
0.620833
0.300000
0.395833
0.287500
0.570833
0.412500
0.775000
0.516667
0.558333
0.579167
0.570833
1.145833
0.570833
0.570833
0.566667
0.579167
0.575000
0.570833
0.575000
0.570833
0.575000
0.583333
0.575000
0.575000
0.579167
0.575000
0.579167
0.579167
0.575000
0.579167
0.579167
0.575000
0.583333
0.579167
0.570833
0.583333
0.575000
0.662500
0.487500
0.579167
0.579167
0.566667
0.570833
0.579167
0.579167
0.570833
0.570833
0.579167
0.591667
0.595833
0.575000
0.583333
0.579167
0.579167
0.579167
0.575000
0.579167
0.579167
0.583333
0.570833
0.591667
0.575000
0.583333
0.583333
0.579167
0.583333
0.583333
0.575000
0.583333
0.225000
0.920833
0.575000
0.587500
0.600000
0.587500
0.587500
0.583333
0.587500
0.745833
0.300000
0.870833
0.425000
0.237500
0.341667
0.362500
0.462500
0.454167
0.279167
0.433333
0.504167
0.295833
0.420833
0.287500
0.520833
0.141667
0.620833
0.400000
0.483333
0.529167
0.575000
0.570833
0.854167
1.162500
0.587500
0.587500
0.983333
0.187500
0.591667
0.587500
0.587500
0.737500
0.225000
0.250000
0.350000
0.787500
0.579167
0.579167
0.579167
0.595833
0.595833
0.587500
0.587500
0.583333
0.583333
0.658333
0.512500
0.591667
0.587500
0.587500
0.591667
0.583333
0.587500
0.595833
0.587500
0.587500
0.587500
0.591667
0.583333
0.587500
0.587500
0.591667
0.587500
0.591667
0.466667
0.604167
0.466667
0.608333
0.195833
0.408333
0.133333
0.500000
0.616667
0.350000
0.658333
0.325000
0.591667
0.262500
0.229167
0.279167
0.470833
0.450000
0.379167
0.700000
0.795833
0.520833
0.437500
0.741667
0.950000
0.229167
0.587500
0.579167
0.583333
0.520833
0.454167
1.054167
0.300000
0.579167
1.162500
0.579167
0.704167
0.458333
0.583333
0.579167
0.583333
0.691667
0.470833
0.891667
0.279167
0.370833
0.212500
0.354167
0.216667
0.720833
0.216667
0.308333
0.645833
0.991667
0.458333
0.404167
0.333333
0.291667
0.279167
0.291667
0.470833
0.433333
0.295833
0.387500
0.241667
0.662500
0.225000
0.537500
0.479167
0.229167
0.475000
0.450000
0.483333
0.616667
0.691667
0.283333
0.970833
0.587500
0.587500
0.587500
0.579167
0.583333
0.583333
0.575000
0.579167
0.591667
0.600000
0.400000
0.775000
0.583333
0.587500
0.579167
0.583333
0.583333
0.587500
0.583333
0.583333
0.583333
0.583333
0.583333
0.587500
0.587500
0.583333
0.587500
0.595833
0.570833
0.729167
0.370833
0.316667
0.429167
0.391667
0.295833
0.470833
0.391667
0.225000
0.450000
0.416667
0.745833
0.600000
0.579167
0.587500
0.583333
0.579167
0.575000
0.316667
0.366667
0.375000
0.575000
0.562500
0.716667
0.583333
0.579167
0.583333
0.587500
0.587500
0.583333
0.583333
0.583333
0.591667
0.583333
0.579167
0.583333
0.591667
0.225000
0.366667
0.587500
0.587500
0.591667
0.595833
0.604167
0.591667
0.591667
0.595833
0.595833
0.600000
0.600000
0.587500
0.587500
0.591667
0.595833
0.595833
0.595833
0.587500
0.583333
0.591667
0.595833
0.595833
0.583333
0.587500
0.591667
0.475000
0.716667
0.587500
0.579167
0.583333
0.600000
0.604167
0.587500
0.595833
0.587500
0.587500
0.583333
0.591667
0.587500
0.587500
0.587500
0.508333
0.662500
0.587500
0.587500
0.591667
0.583333
0.587500
0.587500
0.579167
0.587500
0.587500
0.595833
0.587500
0.583333
0.583333
0.587500
0.591667
0.595833
0.583333
0.591667
0.583333
0.587500
0.595833
0.595833
0.600000
0.587500
0.591667
0.250000
0.341667
0.487500
0.166667
0.445833
0.233333
0.333333
0.683333
0.304167
0.333333
0.283333
0.458333
0.233333
0.395833
0.904167
0.245833
0.237500
0.304167
0.675000
0.441667
0.308333
0.341667
0.362500
0.595833
0.762500
0.425000
0.591667
0.591667
0.587500
0.583333
0.341667
0.258333
0.595833
0.595833
0.600000
0.591667
0.591667
0.587500
0.579167
0.591667
0.595833
0.600000
0.608333
0.604167
