0.500000
0.500000
0.412500
0.558333
0.512500
0.500000
0.408333
0.562500
0.504167
0.500000
0.420833
0.562500
0.512500
0.500000
0.491667
0.495833
0.495833
0.491667
0.500000
0.495833
0.500000
0.500000
0.404167
0.566667
0.508333
0.504167
0.404167
0.566667
0.512500
0.504167
0.395833
0.570833
0.516667
0.504167
0.420833
0.562500
0.508333
0.500000
0.458333
0.541667
0.504167
0.504167
0.395833
0.575000
0.512500
0.500000
0.425000
0.558333
0.508333
0.504167
0.445833
0.545833
0.504167
0.500000
0.400000
0.570833
0.512500
0.500000
0.391667
0.575000
0.508333
0.504167
0.408333
0.562500
0.508333
0.500000
0.425000
0.558333
0.504167
0.504167
0.416667
0.558333
0.508333
0.500000
0.504167
0.500000
0.500000
0.500000
0.500000
0.500000
0.504167
0.500000
0.500000
0.500000
0.500000
0.500000
0.500000
0.500000
0.500000
0.504167
0.500000
0.500000
0.500000
0.500000
0.500000
0.504167
0.500000
0.500000
0.500000
0.500000
0.500000
0.500000
0.500000
0.500000
0.504167
0.500000
0.500000
0.500000
0.504167
0.320833
0.625000
0.520833
0.500000
0.500000
0.508333
0.500000
0.500000
0.500000
0.504167
0.500000
0.500000
0.500000
0.500000
0.495833
0.504167
0.500000
0.500000
0.500000
0.500000
0.495833
0.500000
0.500000
0.500000
0.504167
0.500000
0.500000
0.500000
0.500000
0.504167
0.504167
0.495833
0.500000
0.500000
0.500000
0.500000
0.504167
0.500000
0.495833
0.500000
0.500000
0.500000
0.500000
0.500000
0.504167
0.500000
0.500000
0.508333
0.500000
0.500000
0.500000
0.500000
0.504167
0.500000
0.500000
0.508333
0.500000
0.500000
0.500000
0.400000
0.566667
0.512500
0.504167
0.500000
0.504167
0.508333
0.504167
0.500000
0.500000
0.500000
0.504167
0.500000
0.504167
0.500000
0.504167
0.504167
0.504167
0.500000
0.500000
0.500000
0.504167
0.420833
0.558333
0.508333
0.500000
0.500000
0.500000
0.504167
0.500000
0.500000
0.504167
0.504167
0.500000
0.429167
0.550000
0.508333
0.504167
0.404167
0.566667
0.512500
0.500000
0.500000
0.500000
0.500000
0.500000
0.500000
0.320833
0.625000
0.525000
0.500000
0.420833
0.558333
0.504167
0.504167
0.504167
0.500000
0.500000
0.500000
0.495833
0.500000
0.500000
0.500000
0.504167
0.500000
0.500000
0.500000
0.504167
0.500000
0.500000
0.500000
0.504167
0.500000
0.504167
0.508333
0.504167
0.495833
0.495833
0.495833
0.500000
0.500000
0.500000
0.495833
0.500000
0.504167
0.500000
0.500000
0.500000
0.500000
0.504167
0.504167
0.504167
0.416667
0.558333
0.512500
0.504167
0.404167
0.566667
0.516667
0.504167
0.437500
0.550000
0.508333
0.504167
0.395833
0.575000
0.512500
0.504167
0.412500
0.566667
0.512500
0.500000
0.504167
0.500000
0.504167
0.500000
0.504167
0.500000
0.504167
0.500000
0.500000
0.420833
0.558333
0.508333
0.504167
0.429167
0.558333
0.508333
0.508333
0.391667
0.570833
0.512500
0.504167
0.408333
0.566667
0.508333
0.500000
0.370833
0.583333
0.516667
0.495833
0.391667
0.579167
0.508333
0.500000
0.412500
0.558333
0.504167
0.495833
0.441667
0.541667
0.504167
0.500000
0.500000
0.495833
0.500000
0.500000
0.495833
0.500000
0.495833
0.500000
0.504167
0.416667
0.554167
0.504167
0.495833
0.420833
0.550000
0.504167
0.500000
0.500000
0.500000
0.495833
0.500000
0.495833
0.495833
0.500000
0.504167
0.495833
0.495833
0.500000
0.495833
0.495833
0.500000
0.495833
0.500000
0.500000
0.500000
0.500000
0.495833
0.500000
0.500000
0.495833
0.500000
0.500000
0.495833
0.500000
0.500000
0.495833
0.495833
0.500000
0.400000
0.562500
0.508333
0.500000
0.504167
0.500000
0.495833
0.500000
0.500000
0.495833
0.500000
0.500000
0.500000
0.495833
0.504167
0.500000
0.495833
0.500000
0.500000
0.495833
0.500000
0.408333
0.570833
0.508333
0.500000
0.500000
0.500000
0.495833
0.500000
0.500000
0.500000
0.500000
0.495833
0.408333
0.566667
0.504167
0.500000
0.500000
0.500000
0.495833
0.504167
0.495833
0.504167
0.504167
0.500000
0.404167
0.566667
0.508333
0.500000
0.500000
0.504167
0.500000
0.500000
0.504167
0.500000
0.500000
0.500000
0.404167
0.566667
0.508333
0.504167
0.504167
0.508333
0.500000
0.500000
0.500000
0.495833
0.500000
0.504167
0.400000
0.570833
0.512500
0.504167
0.500000
0.500000
0.504167
0.500000
0.500000
0.504167
0.504167
0.504167
0.500000
0.504167
0.408333
0.566667
0.512500
0.504167
0.400000
0.575000
0.512500
0.504167
0.500000
0.504167
0.508333
0.500000
0.500000
0.500000
0.504167
0.500000
0.404167
0.566667
0.512500
0.508333
0.425000
0.566667
0.512500
0.495833
0.412500
0.558333
0.504167
0.500000
0.500000
0.500000
0.500000
0.504167
0.500000
0.504167
0.500000
0.504167
0.504167
0.500000
0.504167
0.504167
0.504167
0.504167
0.504167
0.504167
0.504167
0.504167
0.504167
0.504167
0.508333
0.504167
0.504167
0.504167
0.504167
0.504167
0.504167
0.504167
0.504167
0.504167
0.504167
0.500000
0.504167
0.504167
0.504167
0.500000
0.504167
0.504167
0.504167
0.500000
0.504167
0.504167
0.504167
0.504167
0.508333
0.504167
0.504167
0.504167
0.504167
0.504167
0.504167
0.504167
0.504167
0.500000
0.508333
0.500000
0.508333
0.504167
0.504167
0.504167
0.500000
0.504167
0.504167
0.508333
0.504167
0.500000
0.504167
0.500000
0.504167
0.500000
0.508333
0.504167
0.500000
0.504167
0.504167
0.504167
0.500000
0.504167
0.500000
0.504167
0.500000
0.504167
0.504167
0.504167
0.500000
0.504167
0.500000
0.504167
0.504167
0.404167
0.570833
0.516667
0.500000
0.404167
0.566667
0.512500
0.500000
0.420833
0.562500
0.508333
0.287500
0.575000
0.537500
0.520833
0.500000
0.500000
0.500000
0.325000
0.616667
0.520833
0.500000
0.500000
0.504167
0.504167
0.504167
0.500000
0.495833
0.500000
0.500000
0.500000
0.500000
0.500000
0.500000
0.504167
0.500000
0.500000
0.500000
0.500000
0.504167
0.500000
0.425000
0.554167
0.508333
0.504167
0.404167
0.570833
0.508333
0.504167
0.500000
0.500000
0.504167
0.500000
0.504167
0.500000
0.500000
0.504167
0.412500
0.562500
0.508333
0.504167
0.500000
0.500000
0.500000
0.500000
0.504167
0.504167
0.504167
0.500000
0.504167
0.500000
0.500000
0.504167
0.504167
0.500000
0.500000
0.504167
0.504167
0.504167
0.500000
0.504167
0.500000
0.504167
0.504167
0.416667
0.566667
0.508333
0.504167
0.408333
0.566667
0.512500
0.504167
0.416667
0.570833
0.508333
0.504167
0.412500
0.562500
0.508333
0.500000
0.504167
0.500000
0.500000
0.504167
0.504167
0.500000
0.504167
0.500000
0.504167
0.500000
0.500000
0.504167
0.508333
0.500000
0.504167
0.500000
0.500000
0.504167
0.504167
0.504167
0.500000
0.504167
0.500000
0.500000
0.504167
0.508333
0.500000
0.504167
0.500000
0.504167
0.500000
0.500000
0.504167
0.412500
0.566667
0.512500
0.500000
0.400000
0.575000
0.512500
0.504167
0.412500
0.566667
0.512500
0.504167
0.433333
0.554167
0.508333
0.500000
0.504167
0.500000
0.508333
0.508333
0.504167
0.500000
0.500000
0.504167
0.495833
0.500000
0.495833
0.500000
0.500000
0.504167
0.500000
0.500000
0.504167
0.504167
0.500000
0.433333
0.554167
0.508333
0.508333
0.408333
0.570833
0.512500
0.508333
0.404167
0.570833
0.516667
0.504167
0.504167
0.508333
0.504167
0.504167
0.504167
0.504167
0.504167
0.416667
0.562500
0.508333
0.504167
0.404167
0.570833
0.512500
0.504167
0.441667
0.550000
0.508333
0.504167
0.504167
0.387500
0.579167
0.516667
0.508333
0.400000
0.575000
0.512500
0.508333
0.425000
0.558333
0.512500
0.504167
0.437500
0.554167
0.512500
0.504167
0.404167
0.570833
0.516667
0.504167
0.412500
0.570833
0.516667
0.504167
0.429167
0.558333
0.512500
0.504167
0.504167
0.504167
0.508333
0.504167
0.504167
0.504167
0.504167
0.504167
0.504167
0.504167
0.504167
0.504167
0.416667
0.562500
0.512500
0.504167
0.404167
0.575000
0.512500
0.504167
0.408333
0.570833
0.512500
0.508333
0.412500
0.566667
0.512500
0.504167
0.416667
0.566667
0.512500
0.504167
0.504167
0.512500
0.504167
0.500000
0.508333
0.504167
0.504167
0.504167
0.504167
0.504167
0.508333
0.504167
0.504167
0.504167
0.504167
0.504167
0.512500
0.504167
0.504167
0.504167
0.295833
0.629167
0.537500
0.508333
0.504167
0.508333
0.504167
0.504167
0.504167
0.504167
0.504167
0.408333
0.575000
0.512500
0.504167
0.504167
0.504167
0.504167
0.504167
0.504167
0.504167
0.508333
0.504167
0.445833
0.545833
0.504167
0.504167
0.400000
0.575000
0.516667
0.504167
0.400000
0.570833
0.516667
0.504167
0.400000
0.575000
0.516667
0.500000
0.416667
0.575000
0.508333
0.504167
0.387500
0.579167
0.516667
0.504167
0.425000
0.558333
0.516667
0.508333
0.504167
0.504167
0.504167
0.495833
0.504167
0.500000
0.500000
0.500000
0.504167
0.500000
0.504167
0.504167
0.504167
0.504167
0.504167
0.500000
0.508333
0.504167
0.504167
0.504167
0.408333
0.566667
0.516667
0.504167
0.504167
0.512500
0.504167
0.500000
0.504167
0.504167
0.500000
0.504167
0.508333
0.500000
0.504167
0.504167
0.504167
0.504167
0.500000
0.504167
0.404167
0.570833
0.512500
0.508333
0.404167
0.575000
0.512500
0.504167
0.433333
0.558333
0.508333
0.504167
0.287500
0.570833
0.545833
0.520833
0.508333
0.508333
0.504167
0.504167
0.504167
0.404167
0.579167
0.516667
0.504167
0.416667
0.562500
0.512500
0.508333
0.412500
0.570833
0.512500
0.504167
0.504167
0.504167
0.508333
0.504167
0.504167
0.504167
0.508333
0.504167
0.425000
0.562500
0.512500
0.512500
0.504167
0.504167
0.504167
0.500000
0.504167
0.508333
0.504167
0.400000
0.575000
0.512500
0.504167
0.404167
0.579167
0.512500
0.504167
0.504167
0.500000
0.504167
0.504167
0.504167
0.508333
0.504167
0.500000
0.404167
0.570833
0.512500
0.504167
0.400000
0.583333
0.512500
0.500000
0.400000
0.570833
0.512500
0.504167
0.400000
0.575000
0.512500
0.504167
0.395833
0.570833
0.512500
0.504167
0.400000
0.579167
0.520833
0.504167
0.395833
0.570833
0.512500
0.504167
0.395833
0.570833
0.516667
0.504167
0.445833
0.545833
0.504167
0.504167
0.500000
0.504167
0.504167
0.504167
0.500000
0.504167
0.508333
0.504167
0.500000
0.504167
0.500000
0.500000
0.508333
0.504167
0.500000
0.504167
0.500000
0.504167
0.500000
0.504167
0.504167
0.508333
0.500000
0.504167
0.500000
0.500000
0.504167
0.504167
0.504167
0.504167
0.500000
0.504167
0.504167
0.500000
0.500000
0.504167
0.504167
0.504167
0.504167
0.504167
0.500000
0.504167
0.508333
0.508333
0.500000
0.504167
0.500000
0.504167
0.500000
0.500000
0.504167
0.508333
0.504167
0.500000
0.500000
0.504167
0.500000
0.504167
0.504167
0.500000
0.504167
0.500000
0.504167
0.441667
0.550000
0.508333
0.504167
0.500000
0.500000
0.508333
0.504167
0.500000
0.500000
0.500000
0.504167
0.412500
0.562500
0.512500
0.504167
0.283333
0.579167
0.537500
0.520833
0.504167
0.504167
0.504167
0.504167
0.500000
0.504167
0.504167
0.504167
0.504167
0.500000
0.500000
0.500000
0.504167
0.508333
0.500000
0.500000
0.504167
0.504167
0.500000
0.504167
0.416667
0.558333
0.516667
0.504167
0.304167
0.633333
0.533333
0.500000
0.400000
0.562500
0.504167
0.500000
0.500000
0.500000
0.495833
0.500000
0.500000
0.500000
0.504167
0.504167
0.500000
0.500000
0.504167
0.500000
0.504167
0.504167
0.500000
0.504167
0.504167
0.504167
0.504167
0.504167
0.504167
0.500000
0.504167
0.504167
0.508333
0.504167
0.508333
0.504167
0.408333
0.570833
0.508333
0.504167
0.504167
0.504167
0.504167
0.504167
0.504167
0.500000
0.504167
0.504167
0.500000
0.504167
0.500000
0.500000
0.504167
0.500000
0.420833
0.558333
0.504167
0.504167
0.416667
0.558333
0.508333
0.504167
0.500000
0.500000
0.500000
0.504167
0.500000
0.504167
0.500000
0.500000
0.504167
0.500000
0.500000
0.429167
0.554167
0.508333
0.500000
0.404167
0.570833
0.508333
0.504167
0.416667
0.558333
0.508333
0.500000
0.504167
0.500000
0.500000
0.504167
0.500000
0.500000
0.500000
0.504167
0.450000
0.541667
0.500000
0.500000
