0.333333
0.350000
0.316667
0.341667
0.362500
0.395833
0.391667
0.395833
0.358333
0.391667
0.320833
0.329167
0.370833
0.554167
0.362500
0.366667
0.341667
0.329167
0.312500
0.308333
0.295833
0.320833
0.354167
0.333333
0.391667
0.333333
0.320833
0.350000
0.337500
0.350000
0.375000
0.354167
0.358333
0.350000
0.375000
0.537500
0.350000
0.320833
0.308333
0.291667
0.300000
0.391667
0.375000
0.358333
0.354167
0.537500
0.400000
0.550000
0.387500
0.329167
0.295833
0.300000
0.300000
0.304167
0.300000
0.295833
0.312500
0.316667
0.216667
0.441667
0.408333
0.395833
0.316667
0.308333
0.375000
0.337500
0.350000
0.354167
0.333333
0.312500
0.329167
0.350000
0.325000
0.341667
0.337500
0.325000
0.329167
0.304167
0.320833
0.337500
0.333333
0.404167
0.362500
0.412500
0.341667
0.295833
1.716667
1.845833
1.291667
0.970833
0.816667
1.145833
1.008333
0.950000
0.912500
0.862500
0.779167
0.762500
1.254167
0.900000
0.758333
0.754167
1.279167
0.895833
0.750000
0.754167
0.766667
1.283333
0.970833
0.745833
1.254167
0.950000
0.958333
0.883333
0.879167
0.866667
0.908333
0.779167
0.766667
0.762500
0.762500
0.758333
0.762500
0.770833
0.766667
0.820833
0.779167
0.758333
0.770833
0.787500
0.775000
0.779167
0.775000
0.770833
0.783333
0.770833
0.775000
0.762500
0.441667
0.591667
0.500000
0.383333
0.550000
0.587500
0.625000
0.566667
0.566667
0.562500
0.383333
1.329167
0.800000
0.695833
0.450000
0.358333
1.183333
0.766667
0.683333
0.625000
0.666667
1.166667
0.745833
0.525000
0.383333
0.329167
0.350000
0.366667
0.337500
0.370833
0.358333
0.325000
0.320833
0.304167
0.237500
0.425000
0.362500
0.341667
0.333333
0.504167
1.054167
0.729167
0.775000
0.683333
0.670833
0.629167
0.650000
0.645833
0.387500
0.345833
0.320833
0.304167
0.333333
0.445833
0.362500
0.400000
0.366667
0.329167
0.312500
0.316667
0.350000
0.325000
0.337500
0.345833
0.354167
0.362500
0.341667
0.354167
0.366667
0.350000
0.329167
0.337500
0.325000
0.320833
0.366667
0.504167
0.358333
0.325000
0.308333
0.312500
0.325000
0.325000
0.325000
0.354167
0.362500
0.329167
0.320833
0.312500
0.304167
0.333333
0.433333
0.333333
0.316667
0.333333
0.350000
0.350000
0.329167
0.333333
0.345833
0.345833
0.358333
0.370833
0.470833
0.366667
0.520833
0.500000
0.437500
0.379167
0.337500
0.320833
0.341667
0.345833
0.325000
0.354167
0.358333
0.341667
0.333333
0.366667
0.354167
0.345833
0.316667
0.329167
0.358333
0.354167
0.337500
0.325000
0.325000
0.325000
0.341667
0.316667
0.316667
0.341667
0.337500
0.329167
0.320833
0.341667
0.362500
0.375000
0.337500
0.300000
0.316667
0.354167
0.329167
0.325000
0.333333
0.325000
0.345833
0.491667
0.341667
0.291667
0.295833
0.308333
0.345833
0.329167
0.295833
0.300000
0.320833
0.362500
0.412500
0.354167
0.345833
0.345833
0.325000
0.350000
0.350000
0.329167
0.483333
0.370833
1.237500
0.441667
1.695833
0.437500
1.225000
0.841667
1.183333
0.429167
1.366667
0.441667
1.379167
1.779167
1.766667
0.750000
0.712500
0.404167
0.387500
0.358333
0.533333
1.925000
0.783333
0.620833
0.654167
0.700000
0.454167
0.358333
0.312500
0.304167
0.358333
0.341667
0.320833
0.341667
0.350000
0.341667
0.358333
0.345833
0.329167
0.312500
0.329167
0.341667
0.345833
0.345833
0.329167
0.329167
0.329167
0.320833
0.316667
0.304167
0.316667
0.341667
0.350000
0.337500
0.304167
0.350000
0.362500
0.345833
0.354167
0.345833
0.320833
0.354167
0.354167
0.325000
0.329167
0.337500
0.304167
0.316667
0.350000
0.341667
0.320833
0.391667
0.370833
0.379167
0.383333
0.345833
0.366667
0.391667
0.345833
0.325000
0.316667
0.341667
0.345833
0.337500
0.329167
0.333333
0.325000
0.341667
0.325000
0.325000
0.320833
0.316667
0.362500
0.329167
0.350000
0.333333
0.366667
0.358333
0.329167
0.325000
0.325000
0.325000
0.375000
0.362500
0.350000
0.358333
0.383333
0.370833
1.737500
0.466667
1.533333
0.762500
0.408333
0.475000
0.375000
0.383333
0.583333
0.962500
1.466667
0.445833
1.383333
0.450000
1.354167
0.754167
0.670833
0.625000
0.587500
0.604167
0.616667
0.558333
0.633333
0.604167
0.604167
0.600000
0.375000
0.408333
0.350000
0.316667
0.333333
0.529167
0.370833
0.329167
1.512500
0.800000
0.475000
0.375000
0.329167
0.312500
0.312500
0.333333
0.370833
0.362500
0.370833
0.537500
0.370833
0.604167
0.687500
0.466667
0.366667
0.325000
0.308333
0.316667
0.329167
0.308333
0.325000
0.358333
0.375000
0.525000
0.354167
0.291667
0.312500
0.345833
0.337500
0.362500
0.508333
0.345833
0.325000
0.358333
0.375000
0.345833
0.329167
0.316667
0.333333
0.345833
0.329167
0.337500
0.354167
0.354167
0.366667
0.595833
0.375000
0.341667
0.350000
0.337500
0.350000
0.358333
0.325000
0.304167
0.283333
0.316667
0.383333
0.404167
0.354167
0.350000
0.350000
0.337500
0.333333
0.325000
0.579167
0.370833
0.341667
0.354167
0.354167
0.354167
0.337500
0.333333
0.325000
0.325000
0.329167
0.325000
0.333333
0.337500
0.358333
0.370833
0.345833
0.362500
0.441667
0.387500
0.433333
0.516667
0.450000
0.345833
0.358333
0.425000
0.345833
0.345833
0.329167
0.308333
0.325000
0.345833
0.333333
0.345833
0.333333
0.345833
0.341667
0.329167
0.345833
0.345833
0.341667
0.337500
0.320833
0.345833
0.370833
0.408333
0.337500
0.325000
0.341667
0.329167
0.341667
0.350000
0.341667
0.329167
0.329167
0.320833
0.329167
0.337500
0.337500
0.345833
0.350000
0.329167
0.329167
0.341667
0.333333
0.329167
0.325000
0.329167
0.316667
0.366667
0.362500
0.404167
0.395833
0.345833
0.329167
0.337500
0.337500
0.329167
0.325000
0.370833
0.408333
0.350000
0.333333
0.325000
0.333333
0.358333
0.391667
0.391667
0.333333
0.350000
0.362500
0.341667
0.329167
0.337500
0.387500
0.408333
0.362500
0.370833
0.329167
0.337500
0.341667
0.341667
0.345833
0.337500
0.316667
0.316667
0.354167
0.362500
0.341667
0.312500
0.295833
0.383333
0.362500
0.316667
0.316667
0.304167
0.329167
0.350000
0.350000
0.329167
0.325000
0.329167
0.320833
0.337500
0.345833
0.458333
0.350000
0.320833
0.366667
0.408333
0.370833
0.370833
0.337500
0.337500
0.504167
0.345833
0.325000
0.350000
0.337500
0.337500
1.279167
0.458333
1.691667
0.358333
1.333333
0.445833
1.291667
0.445833
1.225000
0.441667
1.241667
0.437500
1.070833
0.433333
1.108333
0.437500
1.108333
1.545833
1.875000
1.833333
1.804167
1.758333
1.741667
1.725000
1.729167
1.725000
1.716667
1.720833
1.708333
0.779167
0.837500
0.462500
0.562500
0.637500
0.695833
1.070833
1.362500
0.762500
0.829167
0.637500
0.658333
0.666667
0.670833
0.962500
1.812500
0.766667
0.600000
0.645833
0.804167
0.583333
0.395833
1.200000
0.754167
0.508333
1.195833
0.770833
0.841667
0.679167
0.637500
0.766667
0.587500
0.716667
0.675000
0.683333
0.629167
0.583333
0.604167
0.654167
0.591667
0.837500
0.691667
0.691667
0.662500
0.683333
0.687500
0.583333
0.604167
0.587500
0.379167
0.304167
0.304167
0.412500
0.600000
0.658333
0.658333
0.662500
0.637500
0.616667
0.670833
0.429167
0.470833
0.362500
0.329167
0.370833
0.341667
0.333333
0.325000
0.337500
0.329167
0.308333
0.320833
0.316667
0.308333
0.337500
0.375000
0.341667
0.341667
0.341667
0.400000
0.366667
0.337500
0.337500
0.341667
0.337500
0.325000
0.312500
0.300000
0.329167
0.362500
0.341667
0.325000
0.337500
0.350000
0.341667
0.333333
0.345833
0.333333
0.337500
0.341667
0.350000
0.350000
0.337500
0.354167
0.345833
0.337500
0.337500
0.425000
0.520833
0.354167
0.325000
0.337500
0.333333
0.362500
0.354167
0.333333
0.308333
0.316667
0.329167
0.329167
0.329167
0.320833
0.337500
0.404167
0.370833
0.354167
0.379167
0.350000
0.320833
0.325000
0.320833
0.316667
0.354167
0.404167
0.350000
0.329167
0.329167
0.337500
0.337500
0.341667
0.337500
0.333333
0.325000
0.341667
0.341667
0.316667
0.325000
0.320833
0.337500
0.345833
0.341667
0.333333
0.333333
0.329167
0.341667
0.341667
0.325000
0.354167
0.375000
0.341667
0.350000
0.345833
0.350000
0.337500
0.320833
0.325000
0.341667
0.329167
0.329167
0.345833
0.333333
0.329167
0.341667
0.333333
0.337500
0.341667
0.329167
0.333333
0.341667
0.333333
0.312500
0.325000
0.345833
0.333333
0.341667
0.337500
0.341667
0.341667
0.329167
0.329167
0.337500
0.337500
0.337500
0.333333
0.320833
0.329167
0.391667
0.375000
0.350000
0.337500
0.337500
0.333333
0.337500
0.329167
0.333333
0.320833
0.333333
0.341667
0.337500
0.345833
0.341667
0.345833
0.345833
0.337500
0.316667
0.320833
0.337500
0.337500
0.329167
0.316667
0.329167
0.358333
0.362500
0.333333
0.345833
0.333333
0.350000
0.358333
0.358333
0.337500
0.333333
0.325000
0.333333
0.333333
0.333333
0.341667
0.345833
0.337500
0.341667
0.333333
0.366667
0.362500
0.333333
0.350000
0.337500
0.358333
0.379167
0.345833
0.345833
0.333333
0.345833
0.341667
0.341667
0.341667
0.358333
0.350000
0.441667
0.408333
0.354167
0.325000
0.345833
0.329167
0.316667
0.312500
0.316667
0.341667
0.337500
0.325000
0.329167
0.337500
0.329167
0.329167
0.366667
0.366667
0.341667
0.337500
0.333333
0.337500
0.341667
0.341667
0.337500
0.337500
0.337500
0.345833
0.337500
0.329167
0.337500
0.341667
0.341667
0.345833
0.320833
0.325000
0.329167
0.391667
0.358333
0.333333
0.341667
0.333333
0.329167
0.333333
0.341667
0.329167
0.341667
0.337500
0.379167
0.375000
0.333333
0.350000
0.366667
0.416667
0.366667
0.366667
0.329167
0.308333
0.329167
0.350000
0.345833
0.329167
0.295833
0.333333
0.350000
0.333333
0.329167
0.341667
0.312500
0.308333
0.316667
0.329167
0.345833
0.366667
0.337500
0.325000
0.333333
0.325000
0.366667
0.366667
0.341667
0.333333
0.345833
0.341667
0.320833
0.370833
0.350000
0.362500
0.341667
0.312500
0.312500
0.333333
0.300000
0.300000
0.341667
0.341667
0.387500
0.375000
0.375000
0.354167
0.379167
0.462500
0.362500
0.341667
0.325000
0.341667
0.366667
0.358333
0.325000
0.312500
0.337500
0.345833
0.337500
0.341667
0.337500
0.350000
0.358333
0.345833
0.362500
0.345833
0.337500
0.320833
0.350000
0.350000
0.362500
0.350000
0.337500
0.354167
0.379167
0.333333
0.333333
0.358333
0.591667
0.366667
0.325000
0.375000
0.312500
0.320833
0.354167
0.312500
0.320833
0.337500
0.333333
0.341667
0.337500
0.325000
0.341667
0.358333
0.358333
0.329167
0.316667
0.316667
0.337500
0.350000
0.337500
0.358333
0.375000
0.354167
0.583333
0.383333
0.379167
0.350000
0.325000
0.370833
0.354167
0.358333
0.404167
0.345833
0.333333
0.350000
0.341667
0.345833
0.320833
0.283333
0.325000
0.354167
0.337500
0.341667
0.329167
0.337500
0.320833
0.320833
0.329167
0.291667
0.345833
0.320833
0.337500
0.345833
0.345833
0.308333
0.308333
0.354167
0.354167
0.341667
0.341667
0.325000
0.325000
0.337500
0.345833
0.354167
0.345833
0.354167
0.358333
0.354167
0.345833
0.325000
0.329167
0.308333
0.383333
0.391667
0.345833
0.333333
0.325000
0.308333
0.304167
0.325000
0.316667
0.345833
0.354167
0.325000
0.291667
0.308333
0.354167
0.325000
0.312500
0.308333
0.341667
0.362500
0.345833
0.354167
0.350000
0.345833
0.383333
0.341667
0.362500
0.558333
0.362500
0.341667
0.616667
0.379167
0.325000
0.316667
0.345833
0.404167
0.387500
0.383333
0.333333
0.312500
0.325000
0.329167
0.329167
0.316667
0.308333
0.316667
0.333333
0.345833
0.345833
0.341667
0.333333
0.333333
0.329167
0.320833
0.320833
0.358333
0.391667
0.337500
0.312500
0.308333
0.308333
0.320833
0.383333
0.354167
0.341667
0.325000
0.325000
0.358333
0.366667
0.358333
0.312500
0.262500
0.337500
0.333333
0.362500
0.358333
0.420833
0.516667
0.345833
0.320833
0.329167
0.320833
0.320833
0.337500
0.337500
0.325000
0.312500
0.312500
0.350000
0.341667
0.416667
0.412500
0.383333
0.354167
0.354167
0.329167
0.320833
0.345833
0.400000
0.345833
0.312500
0.316667
0.341667
0.350000
0.325000
0.316667
0.341667
0.337500
0.358333
0.387500
0.345833
0.370833
0.350000
0.541667
0.383333
0.437500
0.408333
0.333333
0.383333
0.383333
0.416667
0.329167
0.304167
0.325000
0.308333
0.320833
0.354167
0.325000
0.433333
0.370833
0.333333
0.337500
0.341667
0.320833
0.304167
0.333333
0.350000
0.333333
0.325000
0.320833
0.341667
0.320833
0.379167
0.358333
0.529167
0.350000
0.320833
0.404167
0.425000
0.345833
0.316667
0.325000
0.316667
0.329167
0.325000
0.500000
0.383333
0.383333
0.229167
0.383333
0.304167
1.329167
0.962500
1.025000
0.762500
0.775000
1.479167
0.829167
0.987500
1.208333
0.812500
0.758333
0.750000
1.275000
0.854167
0.750000
0.754167
1.262500
0.866667
0.741667
0.733333
1.258333
0.862500
0.725000
0.733333
1.258333
0.854167
0.725000
0.733333
0.733333
1.254167
0.854167
0.733333
0.729167
0.729167
0.741667
1.250000
1.458333
1.395833
1.420833
1.433333
1.445833
1.420833
1.454167
1.558333
0.816667
1.516667
0.804167
0.779167
0.470833
1.375000
0.762500
0.625000
0.637500
1.370833
0.770833
0.695833
0.666667
0.495833
