0.558333
0.554167
0.554167
0.554167
0.558333
0.558333
0.554167
0.554167
0.558333
0.558333
0.558333
0.558333
0.562500
0.562500
0.554167
0.558333
0.558333
0.558333
0.558333
0.558333
0.550000
0.550000
0.550000
0.554167
0.554167
0.558333
0.554167
0.558333
0.558333
0.558333
0.562500
0.558333
0.562500
0.558333
0.562500
0.558333
0.562500
0.562500
0.562500
0.558333
0.562500
0.558333
0.558333
0.558333
0.558333
0.558333
0.558333
0.554167
0.558333
0.554167
0.558333
0.558333
0.558333
0.558333
0.558333
0.554167
0.558333
0.558333
0.558333
0.558333
0.558333
0.554167
0.554167
0.425000
0.650000
0.566667
0.554167
0.420833
0.650000
0.562500
0.554167
0.404167
0.662500
0.570833
0.554167
0.558333
0.558333
0.558333
0.554167
0.558333
0.558333
0.554167
0.558333
0.558333
0.554167
0.558333
0.558333
0.554167
0.562500
0.558333
0.554167
0.558333
0.558333
0.562500
0.558333
0.558333
0.558333
0.562500
0.562500
0.558333
0.554167
0.558333
0.562500
0.558333
0.554167
0.558333
0.558333
0.558333
0.554167
0.554167
0.554167
0.558333
0.558333
0.554167
0.558333
0.558333
0.558333
0.554167
0.562500
0.558333
0.558333
0.554167
0.558333
0.554167
0.554167
0.558333
0.558333
0.554167
0.558333
0.562500
0.558333
0.554167
0.558333
0.558333
0.558333
0.558333
0.558333
0.558333
0.562500
0.558333
0.558333
0.558333
0.558333
0.562500
0.554167
0.558333
0.566667
0.558333
0.554167
0.558333
0.558333
0.562500
0.558333
0.558333
0.562500
0.562500
0.554167
0.558333
0.558333
0.558333
0.562500
0.554167
0.558333
0.558333
0.558333
0.558333
0.562500
0.562500
0.558333
0.562500
0.562500
0.562500
0.562500
0.562500
0.562500
0.566667
0.429167
0.658333
0.566667
0.566667
0.420833
0.662500
0.570833
0.558333
0.562500
0.558333
0.558333
0.562500
0.562500
0.558333
0.562500
0.420833
0.658333
0.570833
0.562500
0.420833
0.658333
0.570833
0.558333
0.562500
0.558333
0.558333
0.554167
0.558333
0.562500
0.558333
0.558333
0.554167
0.558333
0.558333
0.429167
0.650000
0.570833
0.562500
0.425000
0.654167
0.566667
0.554167
0.416667
0.650000
0.566667
0.562500
0.420833
0.662500
0.570833
0.562500
0.433333
0.658333
0.570833
0.566667
0.412500
0.658333
0.587500
0.566667
0.562500
0.566667
0.566667
0.562500
0.566667
0.562500
0.562500
0.562500
0.558333
0.562500
0.558333
0.562500
0.558333
0.558333
0.558333
0.558333
0.562500
0.558333
0.554167
0.441667
0.645833
0.566667
0.558333
0.562500
0.562500
0.562500
0.558333
0.562500
0.558333
0.562500
0.558333
0.562500
0.554167
0.562500
0.558333
0.558333
0.558333
0.429167
0.654167
0.566667
0.558333
0.420833
0.662500
0.570833
0.558333
0.404167
0.650000
0.583333
0.558333
0.562500
0.558333
0.558333
0.554167
0.558333
0.558333
0.558333
0.558333
0.558333
0.562500
0.558333
0.558333
0.554167
0.558333
0.558333
0.554167
0.558333
0.558333
0.558333
0.554167
0.558333
0.558333
0.558333
0.558333
0.554167
0.558333
0.558333
0.558333
0.558333
0.562500
0.441667
0.641667
0.562500
0.558333
0.425000
0.654167
0.566667
0.554167
0.408333
0.666667
0.566667
0.558333
0.558333
0.558333
0.558333
0.558333
0.562500
0.558333
0.554167
0.566667
0.441667
0.641667
0.562500
0.558333
0.416667
0.662500
0.566667
0.558333
0.412500
0.654167
0.570833
0.558333
0.416667
0.650000
0.575000
0.562500
0.558333
0.562500
0.566667
0.562500
0.558333
0.562500
0.558333
0.445833
0.645833
0.566667
0.566667
0.441667
0.641667
0.566667
0.554167
0.412500
0.662500
0.566667
0.558333
0.408333
0.662500
0.570833
0.558333
0.562500
0.562500
0.558333
0.558333
0.558333
0.558333
0.558333
0.558333
0.558333
0.558333
0.558333
0.554167
0.433333
0.641667
0.570833
0.558333
0.437500
0.641667
0.566667
0.558333
0.408333
0.662500
0.570833
0.562500
0.554167
0.558333
0.562500
0.558333
0.558333
0.554167
0.558333
0.562500
0.558333
0.554167
0.558333
0.554167
0.558333
0.566667
0.554167
0.558333
0.558333
0.554167
0.558333
0.333333
0.695833
0.587500
0.562500
0.412500
0.658333
0.562500
0.558333
0.425000
0.650000
0.562500
0.554167
0.558333
0.558333
0.550000
0.558333
0.554167
0.558333
0.554167
0.558333
0.562500
0.558333
0.558333
0.554167
0.558333
0.562500
0.554167
0.554167
0.558333
0.554167
0.554167
0.550000
0.554167
0.558333
0.554167
0.562500
0.558333
0.562500
0.562500
0.566667
0.562500
0.562500
0.566667
0.562500
0.562500
0.562500
0.562500
0.562500
0.562500
0.562500
0.562500
0.558333
0.558333
0.562500
0.558333
0.558333
0.562500
0.558333
0.562500
0.558333
0.562500
0.562500
0.558333
0.562500
0.558333
0.562500
0.558333
0.554167
0.558333
0.558333
0.554167
0.558333
0.558333
0.558333
0.558333
0.554167
0.554167
0.554167
0.558333
0.558333
0.554167
0.558333
0.558333
0.562500
0.558333
0.558333
0.554167
0.562500
0.558333
0.554167
0.558333
0.554167
0.558333
0.554167
0.558333
0.558333
0.558333
0.554167
0.558333
0.558333
0.558333
0.558333
0.554167
0.558333
0.554167
0.558333
0.554167
0.558333
0.558333
0.558333
0.558333
0.562500
0.562500
0.558333
0.445833
0.645833
0.570833
0.558333
0.425000
0.658333
0.566667
0.562500
0.408333
0.670833
0.575000
0.566667
0.566667
0.562500
0.566667
0.566667
0.566667
0.558333
0.562500
0.416667
0.666667
0.570833
0.562500
0.425000
0.658333
0.575000
0.558333
0.408333
0.670833
0.570833
0.558333
0.408333
0.670833
0.575000
0.562500
0.562500
0.558333
0.562500
0.562500
0.558333
0.558333
0.558333
0.558333
0.558333
0.562500
0.558333
0.554167
0.554167
0.558333
0.558333
0.554167
0.554167
0.562500
0.554167
0.554167
0.558333
0.558333
0.558333
0.554167
0.425000
0.658333
0.566667
0.554167
0.416667
0.654167
0.562500
0.554167
0.562500
0.554167
0.554167
0.554167
0.550000
0.554167
0.554167
0.441667
0.633333
0.562500
0.558333
0.416667
0.650000
0.566667
0.558333
0.420833
0.654167
0.562500
0.554167
0.558333
0.558333
0.550000
0.554167
0.558333
0.554167
0.554167
0.550000
0.554167
0.554167
0.554167
0.554167
0.558333
0.554167
0.558333
0.558333
0.562500
0.558333
0.554167
0.558333
0.295833
0.641667
0.587500
0.579167
0.562500
0.558333
0.554167
0.558333
0.554167
0.558333
0.554167
0.558333
0.558333
0.558333
0.558333
0.562500
0.429167
0.658333
0.562500
0.558333
0.408333
0.662500
0.562500
0.562500
0.554167
0.554167
0.558333
0.554167
0.554167
0.558333
0.554167
0.433333
0.645833
0.570833
0.558333
0.420833
0.654167
0.566667
0.558333
0.412500
0.658333
0.566667
0.554167
0.412500
0.658333
0.562500
0.562500
0.558333
0.558333
0.558333
0.558333
0.562500
0.558333
0.562500
0.562500
0.562500
0.558333
0.558333
0.558333
0.562500
0.558333
0.425000
0.658333
0.570833
0.554167
0.429167
0.650000
0.566667
0.554167
0.420833
0.658333
0.566667
0.558333
0.408333
0.662500
0.566667
0.562500
0.408333
0.666667
0.566667
0.558333
0.404167
0.662500
0.566667
0.558333
0.562500
0.554167
0.554167
0.554167
0.554167
0.562500
0.554167
0.412500
0.654167
0.562500
0.558333
0.554167
0.554167
0.562500
0.554167
0.554167
0.554167
0.562500
0.554167
0.554167
0.554167
0.554167
0.416667
0.654167
0.562500
0.562500
0.558333
0.550000
0.545833
0.554167
0.554167
0.554167
0.554167
0.562500
0.562500
0.450000
0.645833
0.566667
0.562500
0.412500
0.666667
0.570833
0.562500
0.404167
0.658333
0.579167
0.558333
0.558333
0.558333
0.558333
0.562500
0.558333
0.562500
0.558333
0.562500
0.416667
0.666667
0.570833
0.562500
0.416667
0.662500
0.566667
0.558333
0.562500
0.558333
0.554167
0.558333
0.554167
0.558333
0.562500
0.433333
0.645833
0.566667
0.558333
0.416667
0.658333
0.566667
0.566667
0.558333
0.558333
0.554167
0.558333
0.558333
0.558333
0.562500
0.558333
0.554167
0.558333
0.554167
0.554167
0.562500
0.554167
0.554167
0.558333
0.558333
0.558333
0.558333
0.558333
0.558333
0.562500
0.558333
0.558333
0.558333
0.558333
0.554167
0.558333
0.558333
0.554167
0.562500
0.558333
0.558333
0.554167
0.558333
0.558333
0.558333
0.558333
0.562500
0.562500
0.558333
0.558333
0.558333
0.420833
0.654167
0.562500
0.562500
0.558333
0.558333
0.558333
0.558333
0.562500
0.558333
0.562500
0.425000
0.658333
0.570833
0.558333
0.416667
0.666667
0.570833
0.558333
0.558333
0.558333
0.558333
0.558333
0.558333
0.566667
0.558333
0.558333
0.562500
0.558333
0.558333
0.562500
0.558333
0.562500
0.562500
0.562500
0.558333
0.558333
0.558333
0.562500
0.425000
0.654167
0.575000
0.558333
0.558333
0.558333
0.558333
0.562500
0.558333
0.562500
0.566667
0.558333
0.562500
0.562500
0.562500
0.558333
0.429167
0.654167
0.570833
0.558333
0.416667
0.658333
0.570833
0.562500
0.558333
0.558333
0.558333
0.562500
0.562500
0.445833
0.645833
0.570833
0.562500
0.425000
0.658333
0.570833
0.562500
0.412500
0.662500
0.566667
0.566667
0.408333
0.662500
0.570833
0.558333
0.558333
0.562500
0.558333
0.566667
0.558333
0.562500
0.412500
0.662500
0.570833
0.558333
0.412500
0.662500
0.570833
0.554167
0.412500
0.662500
0.566667
0.562500
0.562500
0.558333
0.562500
0.566667
0.562500
0.562500
0.562500
0.558333
0.562500
0.562500
0.558333
0.562500
0.562500
0.558333
0.558333
0.566667
0.429167
0.654167
0.566667
0.558333
0.412500
0.670833
0.566667
0.566667
0.562500
0.562500
0.562500
0.558333
0.441667
0.645833
0.575000
0.558333
0.558333
0.562500
0.558333
0.558333
0.558333
0.562500
0.558333
0.562500
0.558333
0.408333
0.666667
0.570833
0.558333
0.425000
0.658333
0.566667
0.562500
0.408333
0.675000
0.570833
0.562500
0.412500
0.662500
0.570833
0.562500
0.554167
0.562500
0.562500
0.558333
0.558333
0.558333
0.558333
0.429167
0.650000
0.566667
0.562500
0.412500
0.666667
0.566667
0.562500
0.562500
0.566667
0.558333
0.554167
0.412500
0.654167
0.570833
0.558333
0.416667
0.666667
0.575000
0.562500
0.566667
0.566667
0.566667
0.566667
0.416667
0.679167
0.575000
0.566667
0.566667
0.566667
0.566667
0.562500
0.566667
0.562500
0.429167
0.658333
0.570833
0.558333
0.408333
0.670833
0.566667
0.558333
0.562500
0.558333
0.562500
0.562500
0.562500
0.562500
0.562500
0.562500
0.562500
0.566667
0.562500
0.562500
0.562500
0.445833
0.645833
0.570833
0.562500
0.433333
0.654167
0.566667
0.562500
0.408333
0.666667
0.570833
0.562500
0.562500
0.558333
0.562500
0.562500
0.562500
0.562500
0.566667
0.562500
0.429167
0.662500
0.575000
0.562500
0.412500
0.666667
0.570833
0.316667
0.658333
0.591667
0.579167
0.562500
0.562500
0.558333
0.554167
0.562500
0.558333
0.558333
0.558333
0.558333
0.562500
0.558333
0.558333
0.566667
0.558333
0.558333
0.558333
0.562500
0.562500
0.558333
0.558333
0.558333
0.558333
0.558333
0.558333
0.554167
0.558333
0.558333
0.562500
0.558333
