0.520833
0.525000
0.537500
0.541667
0.545833
0.533333
0.529167
0.533333
0.525000
0.512500
0.512500
0.525000
0.516667
0.529167
0.525000
0.537500
0.520833
0.533333
0.266667
0.295833
0.604167
0.616667
0.575000
0.545833
0.537500
0.516667
0.516667
0.562500
0.320833
0.629167
0.504167
0.537500
0.529167
0.516667
0.512500
0.212500
0.162500
0.087500
0.658333
0.466667
0.275000
0.566667
0.533333
0.187500
0.275000
0.700000
0.525000
0.520833
0.508333
0.508333
0.504167
0.500000
0.508333
0.500000
0.495833
0.500000
0.500000
0.500000
0.508333
0.500000
0.495833
0.508333
0.504167
0.504167
0.516667
0.525000
0.533333
0.529167
0.533333
0.533333
0.541667
0.529167
0.533333
0.537500
0.700000
0.379167
0.512500
0.529167
0.529167
0.516667
0.529167
0.520833
0.520833
0.529167
0.529167
0.525000
0.529167
0.204167
0.320833
0.520833
0.525000
0.529167
0.520833
0.516667
0.520833
0.537500
0.529167
0.520833
0.545833
0.254167
0.741667
0.483333
0.558333
0.504167
0.516667
0.525000
0.529167
0.529167
0.516667
0.516667
0.520833
0.520833
0.512500
0.512500
0.533333
0.562500
0.558333
0.545833
0.533333
0.525000
0.516667
0.508333
0.508333
0.495833
0.500000
0.504167
0.508333
0.516667
0.504167
0.504167
0.504167
0.433333
0.595833
0.512500
0.508333
0.508333
0.512500
0.512500
0.508333
0.504167
0.512500
0.508333
0.508333
0.512500
0.491667
0.500000
0.500000
0.508333
0.512500
0.508333
0.508333
0.675000
0.358333
0.508333
0.504167
0.508333
0.508333
0.516667
0.487500
0.500000
0.504167
0.504167
0.520833
0.516667
0.512500
0.508333
0.516667
0.529167
0.516667
0.512500
0.504167
0.500000
0.500000
0.504167
0.500000
0.420833
0.262500
0.316667
0.500000
0.504167
0.500000
0.495833
0.491667
0.500000
0.166667
0.500000
0.333333
0.279167
0.470833
0.316667
0.412500
0.491667
0.500000
0.495833
0.508333
0.500000
0.491667
0.508333
0.529167
0.525000
0.516667
0.504167
0.504167
0.504167
0.995833
0.491667
0.500000
0.495833
0.504167
0.491667
0.495833
0.495833
0.500000
0.500000
0.504167
1.000000
0.504167
0.512500
0.516667
0.520833
0.520833
0.529167
0.529167
0.537500
0.525000
0.520833
0.529167
0.529167
0.529167
0.525000
0.520833
0.516667
0.529167
0.550000
0.554167
0.562500
0.558333
0.541667
0.529167
0.516667
0.520833
0.520833
0.512500
0.579167
0.437500
0.504167
0.508333
0.529167
0.533333
0.525000
0.520833
0.516667
0.516667
0.516667
0.512500
0.529167
0.516667
0.508333
0.525000
0.387500
0.670833
0.633333
0.191667
0.383333
0.425000
0.400000
0.250000
0.575000
0.354167
0.316667
0.408333
0.116667
0.608333
0.325000
0.200000
0.529167
0.329167
0.662500
0.495833
0.491667
0.487500
0.495833
0.495833
0.512500
0.500000
0.495833
0.504167
0.504167
0.504167
0.504167
0.495833
0.495833
0.508333
0.504167
0.504167
0.504167
0.512500
0.495833
0.500000
0.508333
0.520833
0.537500
0.529167
0.529167
0.520833
0.512500
0.516667
0.525000
0.512500
0.529167
0.525000
0.516667
0.516667
0.512500
0.520833
0.504167
0.504167
0.508333
0.504167
0.512500
0.508333
0.508333
0.508333
0.325000
0.183333
0.512500
0.520833
0.508333
0.229167
0.279167
0.508333
0.508333
0.662500
0.566667
0.254167
0.304167
0.150000
0.575000
0.454167
0.533333
0.254167
0.270833
0.604167
0.870833
0.512500
0.595833
0.462500
0.304167
0.350000
0.308333
0.204167
0.412500
0.816667
0.483333
0.487500
0.491667
0.487500
0.491667
0.495833
0.495833
0.500000
0.491667
0.504167
0.508333
0.508333
0.508333
0.508333
0.500000
0.495833
0.500000
0.500000
0.500000
0.491667
0.495833
0.504167
0.504167
0.500000
0.504167
0.487500
0.500000
0.508333
0.504167
0.525000
0.508333
0.504167
0.504167
0.533333
0.537500
0.516667
0.512500
0.516667
0.516667
0.208333
0.291667
0.116667
0.500000
0.250000
0.762500
0.912500
0.504167
0.633333
0.366667
0.995833
0.991667
0.483333
0.491667
0.491667
0.491667
0.487500
0.979167
0.491667
0.491667
0.504167
0.491667
0.504167
0.504167
0.504167
0.620833
0.212500
0.225000
0.950000
0.512500
1.008333
0.508333
0.504167
0.520833
0.516667
0.516667
1.012500
0.495833
0.495833
0.491667
0.437500
0.558333
0.504167
0.495833
0.495833
0.495833
0.391667
0.591667
0.491667
0.495833
0.508333
0.508333
0.516667
0.504167
0.720833
0.320833
0.504167
0.191667
0.350000
1.204167
0.187500
0.945833
1.008333
0.729167
0.500000
1.520833
1.495833
0.491667
1.479167
1.470833
0.229167
0.766667
0.504167
2.008333
0.508333
1.004167
0.983333
0.491667
0.487500
0.983333
0.483333
0.495833
0.495833
0.508333
0.504167
0.495833
0.279167
0.729167
0.504167
1.008333
0.487500
0.491667
0.991667
0.487500
0.491667
0.495833
0.491667
0.495833
0.495833
0.500000
0.508333
0.583333
0.704167
0.366667
0.558333
0.533333
0.529167
0.525000
0.525000
0.516667
0.516667
0.508333
0.504167
0.500000
0.491667
0.483333
0.491667
0.483333
0.479167
0.470833
0.479167
0.475000
0.470833
0.475000
0.466667
0.475000
0.466667
0.470833
0.470833
0.462500
0.462500
0.470833
0.466667
0.470833
0.458333
0.466667
0.466667
0.466667
0.470833
0.470833
0.466667
0.466667
0.470833
0.470833
0.466667
0.466667
0.470833
0.466667
0.458333
0.470833
0.475000
0.475000
0.475000
0.475000
0.470833
0.475000
0.470833
0.475000
0.475000
0.470833
0.466667
0.483333
0.479167
0.475000
0.479167
0.479167
0.470833
0.475000
0.470833
0.479167
0.470833
0.475000
0.466667
0.475000
0.333333
0.495833
0.308333
0.750000
0.466667
0.945833
0.470833
0.470833
0.475000
0.470833
0.475000
0.475000
0.470833
0.475000
0.466667
0.479167
0.479167
0.483333
0.850000
0.579167
0.491667
0.487500
0.483333
0.483333
0.483333
0.483333
0.491667
0.358333
0.608333
0.491667
0.487500
0.491667
0.483333
0.483333
0.487500
0.370833
0.595833
0.487500
0.483333
0.487500
0.483333
0.487500
0.483333
0.487500
0.487500
0.487500
0.487500
0.487500
0.487500
0.487500
0.483333
0.491667
0.491667
0.491667
0.495833
0.495833
0.687500
0.216667
0.566667
0.500000
0.504167
0.379167
0.437500
0.170833
0.250000
0.729167
0.387500
0.466667
0.245833
0.416667
0.525000
0.387500
0.975000
0.487500
0.483333
0.487500
0.487500
0.487500
0.491667
0.483333
0.491667
0.487500
0.487500
0.662500
0.308333
0.483333
0.487500
0.483333
0.483333
0.487500
0.483333
0.491667
0.483333
0.483333
0.487500
0.491667
0.487500
0.491667
0.487500
0.487500
0.491667
0.491667
0.491667
0.495833
0.495833
0.491667
0.491667
0.495833
0.500000
0.495833
0.504167
0.495833
0.495833
0.500000
0.500000
0.500000
0.504167
0.504167
0.504167
0.366667
0.633333
0.512500
0.508333
0.504167
0.504167
0.508333
0.508333
0.504167
0.508333
0.508333
0.516667
0.516667
0.512500
0.512500
0.520833
0.516667
0.533333
0.525000
0.529167
0.520833
0.533333
0.533333
0.545833
0.545833
0.566667
0.554167
0.566667
0.562500
0.566667
0.558333
0.566667
0.566667
0.595833
0.591667
0.583333
0.583333
0.583333
0.579167
0.575000
0.566667
0.558333
0.575000
0.579167
0.583333
0.595833
0.650000
0.666667
0.645833
0.629167
0.641667
0.645833
0.429167
0.220833
0.654167
0.637500
0.633333
0.575000
0.550000
0.525000
0.525000
0.204167
0.354167
0.462500
0.500000
0.504167
0.504167
0.504167
0.504167
0.500000
0.500000
0.504167
0.500000
0.500000
0.500000
0.500000
0.500000
0.495833
0.495833
0.495833
0.495833
0.495833
0.495833
0.495833
0.500000
0.500000
0.495833
0.504167
0.495833
0.500000
0.504167
0.508333
0.508333
0.508333
0.508333
0.504167
0.508333
0.512500
0.504167
0.508333
0.504167
0.508333
0.508333
0.504167
0.508333
0.504167
0.504167
0.512500
0.520833
0.525000
0.520833
0.520833
0.520833
0.516667
0.516667
0.516667
0.516667
0.516667
0.516667
0.512500
0.512500
0.516667
0.508333
0.516667
0.516667
0.516667
0.512500
0.520833
0.512500
0.516667
0.516667
0.529167
0.529167
0.525000
0.529167
0.529167
0.520833
0.520833
0.520833
0.516667
0.520833
0.520833
0.520833
0.516667
0.520833
0.525000
0.525000
0.529167
0.525000
0.525000
0.520833
0.525000
0.520833
0.525000
0.525000
0.525000
0.525000
0.529167
0.525000
0.529167
0.525000
0.529167
0.529167
0.529167
0.529167
0.529167
0.533333
0.529167
0.529167
0.533333
0.533333
0.537500
0.537500
0.537500
0.537500
0.533333
0.533333
0.537500
0.529167
0.533333
0.529167
0.533333
0.533333
0.537500
0.537500
0.537500
0.541667
0.529167
0.550000
0.545833
0.541667
0.554167
0.550000
0.554167
0.550000
0.545833
0.550000
0.541667
0.537500
0.537500
0.541667
0.541667
0.541667
0.537500
0.550000
0.550000
0.545833
0.550000
0.545833
0.541667
0.545833
0.541667
0.537500
0.533333
0.537500
0.554167
0.554167
0.554167
0.537500
0.204167
0.333333
0.541667
0.537500
0.529167
0.529167
0.383333
0.320833
0.350000
0.525000
0.520833
0.529167
0.520833
0.525000
0.520833
0.520833
0.520833
0.520833
0.520833
0.525000
0.520833
0.512500
0.525000
0.520833
0.520833
0.525000
0.525000
0.529167
0.529167
0.525000
0.537500
0.529167
0.537500
0.537500
0.529167
0.533333
0.529167
0.529167
0.529167
0.525000
0.529167
0.520833
0.529167
1.054167
0.529167
0.537500
0.533333
0.537500
0.533333
0.533333
0.529167
0.529167
0.533333
0.525000
0.525000
0.533333
0.529167
0.391667
0.675000
0.550000
0.533333
0.529167
0.545833
0.550000
0.541667
0.545833
0.541667
0.545833
0.537500
0.550000
0.554167
0.554167
0.545833
0.541667
0.545833
0.537500
0.541667
0.541667
0.537500
0.533333
0.533333
0.533333
0.537500
0.533333
0.537500
0.533333
0.537500
0.533333
0.537500
0.541667
0.541667
0.541667
0.541667
0.541667
0.545833
0.541667
0.545833
0.550000
0.550000
0.554167
0.545833
0.450000
0.633333
0.550000
0.554167
0.554167
0.550000
0.554167
0.562500
0.562500
0.558333
0.558333
0.554167
0.545833
0.554167
0.541667
0.537500
0.545833
0.541667
0.537500
0.541667
0.537500
0.541667
0.545833
0.545833
0.541667
0.545833
0.545833
0.545833
0.550000
0.550000
0.554167
0.558333
0.554167
0.558333
0.558333
0.566667
0.550000
0.558333
0.558333
0.558333
0.550000
0.562500
0.550000
0.550000
0.545833
0.541667
0.550000
0.554167
0.554167
0.554167
0.554167
0.554167
0.550000
0.562500
0.550000
0.550000
0.554167
0.554167
0.558333
0.562500
0.558333
0.558333
0.570833
0.570833
0.583333
0.570833
0.562500
0.558333
0.558333
0.570833
0.566667
0.554167
0.554167
0.558333
0.554167
0.550000
0.558333
0.554167
0.550000
0.554167
0.554167
0.554167
0.554167
0.554167
0.550000
0.562500
0.558333
0.558333
0.550000
0.558333
0.566667
0.562500
0.550000
0.558333
0.558333
0.558333
0.558333
0.554167
0.558333
0.558333
0.566667
1.125000
0.558333
0.562500
0.558333
0.554167
0.558333
0.554167
0.554167
0.558333
0.550000
0.562500
0.554167
0.554167
0.562500
0.566667
0.575000
0.575000
0.570833
0.570833
0.558333
0.554167
0.558333
0.554167
0.550000
0.554167
0.550000
0.554167
0.550000
0.554167
0.562500
0.562500
0.554167
0.554167
0.558333
0.562500
0.554167
0.562500
0.554167
0.562500
0.562500
0.558333
0.554167
0.558333
0.554167
0.558333
0.562500
0.554167
0.558333
0.566667
0.562500
0.554167
0.554167
0.558333
0.554167
0.566667
0.554167
0.554167
0.558333
0.558333
0.554167
0.570833
0.579167
0.566667
0.575000
0.579167
0.570833
0.570833
0.575000
0.566667
0.562500
0.558333
0.558333
0.558333
0.558333
0.558333
0.558333
0.566667
0.562500
0.562500
0.566667
0.570833
0.562500
0.566667
0.566667
0.566667
0.570833
0.566667
