0.483333
0.870833
0.708333
1.475000
0.729167
0.829167
1.354167
0.716667
0.570833
1.012500
0.720833
0.583333
0.379167
0.325000
1.041667
1.325000
0.737500
0.633333
0.629167
1.133333
0.716667
0.525000
1.062500
0.737500
1.754167
0.737500
1.558333
0.733333
0.595833
1.575000
0.741667
1.587500
0.725000
0.583333
0.420833
0.358333
0.629167
1.479167
0.745833
0.600000
1.600000
0.745833
0.608333
0.400000
0.337500
0.316667
0.341667
0.366667
0.337500
0.333333
0.345833
0.345833
0.337500
0.337500
1.062500
0.729167
0.900000
0.608333
0.579167
0.625000
0.616667
0.625000
0.629167
0.616667
0.587500
0.579167
0.625000
0.612500
0.600000
0.608333
0.637500
0.633333
0.725000
0.441667
0.420833
0.379167
0.504167
0.237500
0.300000
0.325000
0.345833
0.329167
0.312500
0.312500
0.333333
0.333333
0.320833
0.304167
0.341667
0.341667
0.370833
0.429167
0.570833
0.241667
0.308333
0.320833
0.312500
0.295833
0.295833
0.308333
0.320833
0.300000
0.312500
0.429167
0.345833
0.312500
0.354167
0.375000
0.345833
0.358333
0.420833
0.354167
0.312500
0.316667
0.358333
0.329167
0.304167
0.341667
0.333333
0.291667
0.320833
0.358333
0.370833
0.370833
0.358333
0.341667
0.341667
0.329167
0.308333
0.295833
0.329167
0.337500
0.375000
0.429167
0.337500
0.320833
0.316667
0.312500
0.312500
0.341667
0.350000
0.333333
0.312500
0.350000
0.350000
0.308333
0.304167
0.320833
0.320833
0.333333
0.333333
0.329167
0.337500
0.350000
0.354167
0.329167
0.320833
0.325000
0.329167
0.325000
0.295833
0.320833
0.341667
0.591667
0.445833
0.487500
0.366667
0.329167
0.483333
0.383333
0.416667
0.487500
0.366667
0.329167
0.333333
0.341667
0.337500
0.350000
0.341667
0.308333
0.304167
0.312500
0.312500
0.316667
0.308333
0.316667
0.345833
0.366667
0.333333
0.308333
0.312500
0.316667
0.308333
0.316667
0.441667
0.475000
0.345833
0.325000
0.312500
0.304167
0.316667
0.333333
0.300000
0.312500
0.316667
0.308333
0.358333
0.462500
0.350000
0.316667
0.325000
0.333333
0.370833
0.366667
0.333333
0.325000
0.300000
0.283333
0.287500
0.312500
0.341667
0.362500
0.350000
0.341667
0.329167
0.337500
0.337500
0.325000
0.316667
0.312500
0.333333
0.345833
0.337500
0.341667
0.341667
0.325000
0.316667
0.325000
0.225000
0.395833
0.329167
0.320833
0.320833
0.350000
0.370833
0.341667
0.333333
0.333333
0.337500
0.333333
0.320833
0.329167
0.320833
0.312500
0.333333
0.458333
0.637500
0.291667
0.350000
0.354167
0.345833
0.229167
0.450000
0.379167
0.337500
0.312500
0.304167
0.320833
0.329167
0.358333
0.433333
0.366667
0.525000
0.362500
0.591667
0.395833
0.433333
0.383333
0.337500
0.341667
0.350000
0.387500
0.337500
0.320833
0.329167
0.316667
0.325000
0.325000
0.329167
0.333333
0.325000
0.308333
0.325000
0.325000
0.312500
0.320833
0.325000
0.333333
0.320833
0.333333
0.400000
0.400000
0.391667
0.333333
0.320833
0.333333
0.325000
0.354167
0.350000
0.350000
0.350000
0.333333
0.362500
0.358333
0.337500
0.400000
0.358333
0.329167
0.316667
0.320833
0.300000
0.320833
0.337500
0.320833
0.304167
0.325000
0.333333
0.329167
0.333333
0.325000
0.320833
0.329167
0.354167
0.391667
0.341667
0.325000
0.333333
0.337500
0.320833
0.333333
0.391667
0.362500
0.350000
0.308333
0.279167
0.216667
0.333333
0.308333
0.300000
0.304167
0.304167
0.312500
0.325000
0.308333
0.312500
0.304167
0.308333
0.350000
0.362500
0.341667
0.479167
0.379167
0.466667
0.345833
0.312500
0.320833
0.325000
0.316667
0.320833
0.329167
0.337500
0.333333
0.362500
0.354167
0.333333
0.325000
0.325000
0.320833
0.320833
0.308333
0.216667
0.433333
0.383333
0.341667
0.337500
0.333333
0.329167
0.304167
0.345833
0.400000
0.345833
0.325000
0.333333
0.354167
0.483333
0.333333
0.316667
0.329167
0.312500
0.325000
0.316667
0.304167
0.300000
0.316667
0.337500
0.216667
0.420833
0.312500
0.216667
0.429167
0.320833
0.329167
0.345833
0.329167
0.358333
0.395833
0.345833
0.229167
0.391667
0.375000
0.391667
0.345833
0.329167
0.325000
0.320833
0.320833
0.316667
0.333333
0.308333
0.329167
0.320833
0.304167
0.358333
0.354167
0.225000
0.379167
0.341667
0.362500
0.366667
0.345833
0.337500
0.320833
0.320833
0.325000
0.316667
0.325000
0.312500
0.325000
0.329167
0.333333
0.341667
0.325000
0.329167
0.337500
0.325000
0.320833
0.370833
0.354167
0.354167
0.341667
0.329167
0.316667
0.325000
0.375000
0.354167
0.325000
0.329167
0.325000
0.316667
0.325000
0.329167
0.325000
0.316667
0.325000
0.333333
0.325000
0.329167
0.325000
0.325000
0.325000
0.325000
0.329167
0.337500
0.325000
0.320833
0.316667
0.333333
0.329167
0.325000
0.366667
0.333333
0.320833
0.308333
0.366667
0.354167
0.345833
0.341667
0.316667
0.304167
0.316667
0.362500
0.362500
0.358333
0.358333
0.379167
0.537500
0.387500
0.416667
0.345833
0.329167
0.329167
0.358333
0.566667
0.595833
1.891667
0.879167
0.858333
0.779167
0.841667
1.304167
0.870833
0.850000
0.662500
0.829167
0.729167
1.279167
0.875000
0.845833
0.820833
0.633333
1.212500
0.845833
0.720833
0.725000
1.208333
0.675000
0.875000
0.716667
0.712500
0.745833
1.237500
0.862500
0.791667
0.866667
0.741667
0.741667
0.733333
0.733333
0.737500
0.737500
0.733333
0.745833
0.741667
0.745833
0.741667
0.745833
0.754167
0.741667
0.750000
0.741667
0.754167
0.745833
0.750000
0.745833
0.750000
0.741667
0.754167
0.745833
0.745833
0.745833
0.737500
0.750000
0.745833
0.741667
0.733333
0.741667
0.737500
0.745833
0.729167
0.741667
0.737500
0.741667
0.729167
0.737500
0.733333
0.737500
0.729167
0.733333
0.729167
0.741667
0.725000
0.733333
0.733333
0.729167
0.729167
0.733333
0.729167
0.729167
0.737500
0.720833
0.733333
0.725000
0.733333
0.716667
0.733333
0.725000
0.729167
0.720833
0.729167
0.420833
1.041667
0.450000
0.566667
0.545833
0.562500
0.641667
0.679167
0.558333
0.583333
0.470833
0.658333
0.483333
0.629167
0.612500
0.700000
0.400000
0.354167
0.320833
0.304167
0.300000
0.295833
0.308333
0.300000
0.308333
0.333333
0.329167
0.320833
0.341667
0.329167
0.320833
0.325000
0.325000
0.316667
0.404167
0.254167
1.600000
0.433333
0.320833
0.320833
0.350000
0.241667
0.412500
0.350000
0.241667
0.400000
0.333333
0.329167
0.337500
0.325000
0.316667
0.337500
0.333333
0.325000
0.366667
0.241667
0.416667
0.329167
0.325000
0.325000
0.312500
0.308333
0.329167
0.312500
0.358333
0.358333
0.329167
0.329167
0.320833
0.350000
0.337500
0.316667
0.308333
0.320833
0.329167
0.325000
0.320833
0.325000
0.337500
0.312500
0.312500
0.325000
0.316667
0.320833
0.329167
0.333333
0.366667
0.345833
0.304167
0.279167
0.366667
0.366667
0.433333
0.329167
1.650000
0.312500
0.329167
0.487500
0.500000
0.558333
0.329167
0.312500
0.291667
0.308333
0.350000
0.362500
0.362500
0.333333
0.362500
0.345833
0.308333
0.220833
0.720833
0.241667
0.425000
0.354167
0.325000
0.437500
0.370833
0.333333
0.416667
0.333333
0.529167
0.637500
0.287500
0.445833
0.470833
0.225000
0.300000
0.312500
0.345833
0.375000
0.325000
0.316667
0.333333
0.304167
0.300000
0.316667
0.341667
0.362500
0.345833
0.337500
0.333333
0.362500
0.462500
0.345833
0.345833
0.433333
0.358333
0.316667
0.350000
0.529167
0.358333
0.325000
0.320833
0.325000
0.362500
0.354167
0.325000
0.312500
0.304167
0.304167
0.337500
0.358333
0.337500
0.333333
0.329167
0.316667
0.333333
0.512500
0.362500
0.354167
0.337500
0.333333
0.366667
0.320833
0.300000
0.325000
0.320833
0.383333
0.350000
0.320833
0.316667
0.312500
0.325000
0.337500
0.320833
0.320833
0.325000
0.316667
0.329167
0.337500
0.333333
0.316667
0.216667
0.408333
0.341667
0.337500
0.345833
0.354167
0.333333
0.312500
0.320833
0.325000
0.220833
0.412500
0.329167
0.333333
0.345833
0.337500
0.329167
0.325000
0.316667
0.320833
0.337500
0.350000
0.337500
0.354167
0.345833
0.312500
0.295833
0.316667
0.325000
0.341667
0.333333
0.320833
0.362500
0.337500
0.300000
0.304167
0.304167
0.320833
0.341667
0.320833
0.320833
0.325000
0.333333
0.345833
0.333333
0.358333
0.366667
0.333333
0.320833
0.325000
0.333333
0.325000
0.320833
0.320833
0.329167
0.329167
0.316667
0.333333
0.345833
0.333333
0.316667
0.325000
0.325000
0.312500
0.316667
0.312500
0.337500
0.341667
0.316667
0.308333
0.304167
0.320833
0.325000
0.312500
0.316667
0.320833
0.329167
0.325000
0.316667
0.320833
0.325000
0.325000
0.337500
0.329167
0.325000
0.308333
0.316667
0.325000
0.320833
0.329167
0.345833
0.391667
0.329167
0.354167
0.358333
0.337500
0.354167
0.329167
0.316667
0.325000
0.329167
0.316667
0.325000
0.350000
0.337500
0.337500
0.329167
0.329167
0.329167
0.320833
0.308333
0.312500
0.329167
0.325000
0.333333
0.337500
0.333333
0.316667
0.320833
0.308333
0.212500
0.441667
0.333333
0.400000
0.366667
0.329167
0.300000
0.325000
0.366667
0.362500
0.320833
0.312500
0.333333
0.216667
0.416667
0.316667
0.308333
0.320833
0.216667
0.412500
0.375000
0.354167
0.350000
0.391667
0.350000
0.370833
0.341667
0.316667
0.316667
0.320833
0.312500
0.300000
0.366667
0.400000
0.545833
0.341667
0.312500
0.295833
0.300000
0.312500
0.337500
0.350000
0.425000
0.354167
0.316667
0.316667
0.308333
0.308333
0.350000
0.333333
0.350000
0.366667
0.379167
0.354167
0.354167
0.333333
0.308333
0.316667
0.358333
0.337500
0.316667
0.300000
0.333333
0.333333
0.329167
0.408333
0.354167
0.329167
0.325000
0.316667
0.333333
0.429167
0.341667
0.325000
0.329167
0.316667
0.295833
0.295833
0.304167
0.216667
0.308333
0.420833
0.333333
0.329167
0.329167
0.312500
0.325000
0.350000
0.300000
0.216667
0.454167
0.516667
0.337500
0.287500
0.304167
0.433333
0.358333
0.341667
0.375000
0.362500
0.333333
0.312500
0.212500
0.404167
0.341667
0.329167
0.366667
0.358333
0.333333
0.300000
0.287500
0.337500
0.337500
0.316667
0.358333
0.354167
0.345833
0.312500
0.575000
0.325000
0.304167
0.304167
0.287500
0.325000
0.320833
0.312500
0.325000
0.325000
0.300000
0.308333
0.595833
1.862500
0.870833
1.141667
0.941667
0.895833
0.833333
0.754167
0.791667
1.212500
0.825000
0.916667
0.741667
0.941667
0.920833
0.904167
0.866667
0.808333
0.779167
0.729167
0.720833
0.791667
1.029167
0.904167
0.904167
0.833333
0.845833
0.762500
0.737500
0.725000
0.720833
0.720833
0.725000
0.725000
0.733333
0.741667
0.741667
0.745833
0.737500
0.741667
0.741667
0.741667
0.745833
0.754167
0.758333
0.754167
0.758333
0.762500
0.750000
0.758333
0.754167
0.758333
0.750000
0.758333
0.745833
0.750000
0.750000
0.750000
0.741667
0.754167
0.737500
0.737500
0.737500
0.750000
0.729167
0.737500
0.737500
0.741667
0.733333
0.725000
0.741667
0.733333
0.729167
0.729167
0.729167
0.733333
0.733333
0.725000
0.737500
0.733333
0.729167
0.733333
0.729167
0.725000
0.725000
0.725000
0.720833
0.720833
0.725000
0.720833
0.720833
0.716667
0.725000
0.720833
0.720833
0.716667
0.720833
0.720833
0.720833
0.725000
0.720833
0.716667
0.729167
0.716667
0.716667
0.725000
0.716667
0.720833
0.712500
0.720833
0.420833
1.050000
0.445833
0.604167
0.620833
0.570833
0.508333
0.370833
1.629167
1.541667
0.716667
0.587500
1.325000
0.733333
0.720833
0.633333
1.475000
0.737500
1.583333
1.658333
0.725000
0.566667
0.616667
0.416667
1.154167
0.716667
0.600000
0.645833
1.641667
0.733333
0.654167
0.662500
0.708333
0.654167
0.645833
0.650000
0.391667
0.350000
0.325000
0.316667
0.537500
1.129167
0.725000
0.587500
0.608333
0.558333
0.658333
0.383333
1.162500
0.725000
0.629167
0.662500
0.750000
0.600000
0.575000
1.645833
0.741667
0.600000
1.025000
0.437500
1.250000
0.729167
0.612500
0.720833
0.495833
0.641667
0.591667
1.662500
0.741667
0.700000
0.545833
1.608333
0.737500
0.600000
0.633333
0.645833
1.533333
0.737500
0.654167
0.629167
0.625000
0.641667
0.633333
0.704167
0.633333
0.675000
0.658333
0.645833
0.641667
0.687500
0.650000
0.662500
0.637500
0.700000
0.737500
0.562500
0.733333
1.258333
0.750000
0.720833
0.883333
1.150000
1.920833
0.725000
0.837500
0.645833
0.400000
0.341667
0.320833
0.308333
0.312500
0.308333
0.325000
0.337500
0.250000
0.441667
0.316667
0.308333
0.312500
0.320833
0.308333
0.345833
0.620833
0.245833
0.300000
0.295833
0.308333
0.333333
0.329167
0.320833
0.341667
0.341667
0.329167
0.333333
0.329167
0.241667
0.441667
0.370833
0.333333
0.320833
0.312500
0.308333
0.320833
0.350000
0.341667
0.333333
0.337500
0.325000
0.300000
0.287500
0.308333
0.308333
0.320833
0.316667
0.329167
0.312500
0.333333
0.350000
0.362500
0.341667
0.350000
0.333333
0.308333
0.295833
0.300000
