0.470833
0.391667
0.091667
0.175000
0.362500
0.395833
0.404167
0.383333
0.333333
0.516667
0.741667
0.604167
0.329167
0.458333
0.554167
0.445833
0.450000
0.654167
0.150000
0.375000
1.116667
0.395833
0.379167
0.337500
0.350000
0.475000
0.200000
0.387500
0.416667
0.387500
0.466667
0.400000
0.400000
0.304167
0.670833
0.700000
0.437500
0.520833
0.370833
0.437500
0.166667
0.387500
0.341667
0.400000
0.362500
0.362500
0.416667
0.379167
0.716667
0.400000
0.700000
0.462500
0.458333
0.379167
0.358333
0.808333
0.658333
0.429167
0.233333
0.354167
0.720833
0.358333
0.787500
0.691667
0.516667
0.295833
0.341667
0.512500
0.212500
0.675000
0.379167
0.358333
0.400000
0.850000
0.400000
0.270833
0.133333
0.712500
0.483333
0.700000
1.008333
0.525000
0.333333
0.920833
0.333333
0.450000
0.408333
0.241667
0.858333
1.025000
1.083333
0.629167
0.991667
0.608333
0.366667
0.370833
1.154167
0.479167
0.283333
0.270833
0.537500
0.275000
0.954167
0.754167
0.362500
0.854167
0.220833
0.987500
0.816667
0.345833
0.462500
0.716667
0.370833
1.020833
0.900000
0.370833
0.820833
0.754167
0.512500
1.237500
0.420833
0.416667
0.437500
0.958333
0.695833
0.400000
0.333333
0.616667
0.837500
0.445833
0.525000
1.045833
0.291667
0.404167
0.762500
0.816667
0.712500
1.220833
0.916667
1.345833
0.395833
1.100000
0.320833
0.604167
0.662500
0.391667
0.491667
0.420833
1.075000
0.283333
0.437500
0.129167
0.487500
0.533333
0.587500
0.737500
0.520833
0.366667
0.233333
0.783333
0.887500
0.779167
0.883333
1.037500
0.729167
0.387500
0.766667
1.304167
1.358333
1.612500
1.700000
0.220833
0.266667
1.033333
0.162500
0.675000
0.225000
0.737500
0.345833
0.379167
0.712500
0.833333
0.158333
0.566667
0.758333
0.879167
0.600000
0.695833
1.212500
0.308333
1.483333
0.516667
0.900000
0.695833
0.325000
0.300000
0.920833
0.500000
1.020833
0.808333
0.254167
1.033333
0.445833
1.066667
1.658333
1.687500
0.912500
1.541667
1.212500
0.645833
0.270833
1.816667
0.429167
2.233333
1.787500
2.137500
0.412500
1.262500
0.375000
1.108333
0.887500
0.404167
1.220833
0.450000
0.404167
0.779167
0.262500
0.608333
0.408333
0.420833
0.858333
0.358333
0.337500
0.554167
0.579167
0.408333
0.475000
0.429167
0.379167
0.391667
0.379167
0.816667
0.383333
0.508333
0.420833
0.383333
0.754167
0.420833
0.416667
1.045833
0.420833
0.450000
0.804167
0.583333
0.508333
0.408333
0.787500
0.933333
0.483333
1.000000
0.258333
0.395833
0.529167
0.779167
0.804167
0.716667
0.308333
0.954167
0.437500
0.520833
0.429167
0.537500
0.487500
0.595833
0.545833
0.525000
0.795833
1.154167
0.379167
0.370833
0.833333
0.454167
0.437500
0.941667
0.379167
0.379167
0.383333
0.829167
0.400000
0.379167
0.387500
0.433333
0.666667
0.395833
0.483333
0.783333
1.045833
0.454167
0.775000
1.195833
0.416667
1.012500
0.995833
0.420833
1.125000
0.337500
0.370833
0.350000
0.504167
0.304167
0.716667
0.283333
0.800000
0.795833
0.445833
0.337500
0.779167
0.466667
0.883333
0.575000
0.329167
1.158333
0.433333
0.837500
0.420833
0.654167
0.250000
0.583333
0.608333
1.175000
0.333333
1.004167
0.420833
0.204167
0.404167
0.758333
0.700000
0.208333
0.920833
0.850000
1.091667
0.408333
0.887500
0.512500
0.879167
0.529167
0.391667
1.141667
0.541667
0.595833
0.412500
0.425000
0.291667
0.425000
0.820833
0.766667
1.200000
0.795833
0.362500
0.337500
0.795833
0.558333
0.408333
0.879167
0.379167
0.691667
0.837500
0.825000
0.695833
0.845833
0.720833
1.158333
0.575000
0.637500
0.883333
0.516667
0.937500
0.575000
0.500000
1.333333
0.229167
0.541667
0.358333
1.320833
0.279167
0.791667
0.508333
0.829167
0.379167
0.666667
1.212500
1.145833
0.445833
0.200000
0.454167
0.429167
0.350000
0.579167
0.137500
0.941667
0.370833
0.808333
0.937500
0.708333
0.366667
0.958333
0.308333
1.341667
1.095833
0.658333
1.108333
1.175000
0.470833
0.329167
1.533333
0.900000
1.445833
0.391667
0.754167
0.729167
0.395833
0.454167
0.387500
0.479167
0.412500
0.408333
0.491667
0.758333
0.445833
0.433333
0.420833
0.895833
0.416667
0.441667
0.400000
0.512500
0.408333
0.387500
0.404167
0.466667
0.487500
0.454167
0.487500
0.354167
0.370833
0.366667
0.787500
0.383333
0.379167
0.795833
0.458333
0.383333
0.362500
0.370833
0.687500
0.370833
0.400000
0.358333
0.841667
0.408333
0.433333
0.458333
0.408333
0.470833
0.425000
0.504167
0.845833
0.450000
0.495833
0.429167
0.520833
0.733333
0.595833
0.587500
0.391667
0.362500
0.520833
0.375000
1.045833
0.691667
0.441667
0.783333
0.375000
0.512500
0.525000
0.366667
0.604167
0.479167
0.379167
0.820833
0.154167
0.862500
0.595833
0.183333
0.208333
0.387500
0.541667
0.791667
0.383333
0.404167
0.387500
0.383333
0.620833
0.633333
0.570833
0.845833
0.391667
0.391667
0.479167
0.441667
0.525000
0.387500
0.400000
0.825000
0.816667
0.637500
0.204167
0.625000
0.033333
0.541667
0.400000
0.887500
0.437500
0.450000
0.375000
0.400000
0.500000
0.400000
0.475000
0.425000
0.445833
0.395833
0.504167
0.375000
0.775000
0.829167
1.020833
0.125000
0.629167
0.229167
0.600000
0.479167
1.070833
0.295833
0.279167
0.400000
0.904167
0.808333
0.800000
1.379167
0.783333
1.245833
1.091667
1.195833
0.379167
0.433333
1.204167
0.366667
0.370833
0.450000
0.470833
0.995833
0.404167
0.787500
0.491667
0.412500
0.412500
0.504167
0.841667
1.012500
0.429167
0.387500
0.470833
0.970833
0.395833
0.383333
0.445833
0.425000
0.404167
0.466667
0.441667
0.558333
0.600000
0.404167
0.387500
0.491667
0.450000
0.400000
0.354167
0.333333
0.691667
0.445833
0.608333
0.412500
0.404167
0.500000
0.516667
0.425000
0.391667
0.408333
0.370833
0.575000
0.591667
0.400000
0.391667
0.412500
0.412500
0.429167
0.375000
0.341667
0.350000
0.570833
0.400000
0.416667
0.454167
0.395833
0.537500
0.425000
0.354167
0.412500
0.425000
0.562500
0.516667
0.408333
0.425000
0.379167
0.575000
0.375000
0.437500
0.429167
0.483333
0.429167
0.404167
0.391667
0.408333
0.408333
0.445833
0.425000
0.387500
0.337500
0.441667
0.183333
0.262500
0.516667
0.529167
0.550000
0.679167
0.470833
0.412500
0.420833
0.483333
0.270833
0.629167
0.433333
0.391667
0.495833
0.320833
0.379167
0.475000
0.416667
0.362500
0.345833
0.562500
0.395833
0.529167
0.591667
0.470833
0.391667
0.608333
0.195833
0.408333
0.466667
0.687500
0.387500
0.500000
0.400000
0.433333
0.475000
0.525000
0.525000
0.437500
0.470833
0.375000
0.466667
0.416667
0.395833
0.612500
0.420833
0.387500
0.412500
0.362500
0.391667
0.454167
0.533333
0.408333
0.358333
0.354167
0.566667
0.520833
0.450000
0.408333
0.395833
0.383333
0.479167
0.437500
0.462500
0.495833
0.454167
0.391667
0.566667
0.387500
0.466667
0.387500
0.395833
0.370833
0.700000
0.145833
0.383333
0.341667
0.608333
0.833333
0.387500
0.358333
0.370833
0.487500
0.337500
0.525000
0.408333
0.379167
0.354167
0.354167
0.425000
0.404167
0.425000
0.470833
0.383333
0.687500
0.237500
0.500000
0.316667
0.216667
0.233333
0.250000
0.416667
0.475000
0.570833
0.404167
0.341667
0.466667
0.420833
0.400000
0.404167
0.545833
0.395833
0.500000
0.445833
0.579167
0.433333
0.404167
0.500000
0.420833
0.433333
0.391667
0.370833
0.370833
0.358333
0.362500
0.466667
0.454167
0.462500
0.483333
0.512500
0.383333
0.395833
0.404167
0.433333
0.416667
0.400000
0.458333
0.412500
0.412500
0.445833
0.466667
0.470833
0.375000
0.358333
0.758333
0.420833
0.379167
0.429167
0.562500
0.391667
0.379167
0.362500
0.379167
0.379167
0.475000
0.408333
0.395833
0.404167
0.266667
0.229167
0.391667
0.395833
0.408333
0.470833
0.404167
0.491667
0.491667
0.500000
0.458333
0.458333
0.500000
0.541667
0.400000
0.579167
0.429167
0.441667
0.437500
0.475000
0.366667
0.333333
0.362500
0.454167
0.570833
0.437500
0.429167
0.525000
0.416667
0.391667
0.345833
0.366667
0.358333
0.345833
0.383333
0.366667
0.470833
0.408333
0.441667
0.487500
0.425000
0.429167
0.529167
0.479167
0.370833
0.633333
0.395833
0.475000
0.454167
0.475000
0.487500
0.425000
0.479167
0.379167
0.404167
0.462500
0.500000
0.475000
0.437500
0.437500
0.404167
0.425000
0.475000
0.400000
0.362500
0.370833
0.479167
0.437500
0.566667
0.454167
0.445833
0.520833
0.429167
0.458333
0.420833
0.487500
0.450000
0.450000
0.429167
0.475000
0.408333
0.454167
0.404167
0.454167
0.416667
0.404167
0.500000
0.375000
0.395833
0.341667
0.470833
0.500000
0.437500
0.429167
0.425000
0.408333
0.516667
0.408333
0.404167
0.470833
0.379167
0.429167
0.400000
0.437500
0.412500
0.429167
0.462500
0.445833
0.466667
0.416667
0.358333
0.470833
0.383333
0.354167
0.450000
0.337500
0.404167
0.466667
0.375000
0.391667
0.587500
0.512500
0.416667
0.433333
0.562500
0.441667
0.537500
0.408333
0.395833
0.508333
0.391667
0.383333
0.387500
0.425000
0.575000
0.516667
0.404167
0.408333
0.358333
0.570833
0.483333
0.387500
0.370833
0.475000
0.487500
0.412500
0.454167
0.633333
0.500000
0.425000
0.566667
0.425000
0.441667
0.545833
0.420833
0.441667
0.479167
0.429167
0.587500
0.429167
0.516667
0.441667
0.383333
0.616667
0.404167
0.479167
0.420833
0.400000
0.416667
0.466667
0.412500
0.445833
0.475000
0.320833
0.712500
0.512500
0.533333
0.408333
0.387500
0.383333
0.475000
0.320833
0.216667
0.425000
0.416667
0.545833
0.408333
0.437500
0.445833
0.433333
0.425000
0.516667
0.458333
0.408333
0.412500
0.354167
0.554167
0.408333
0.391667
0.550000
0.433333
0.425000
0.516667
0.437500
0.375000
0.550000
0.437500
0.412500
0.454167
0.375000
0.350000
0.516667
0.408333
0.445833
0.383333
0.345833
0.429167
0.620833
0.425000
0.387500
0.408333
0.675000
0.387500
0.391667
0.420833
0.525000
0.604167
0.391667
0.362500
0.391667
0.379167
0.387500
0.366667
0.345833
0.345833
0.420833
0.495833
0.412500
0.379167
0.516667
0.504167
0.550000
0.395833
0.491667
0.387500
0.379167
0.558333
0.491667
0.470833
0.395833
0.479167
0.379167
0.375000
0.375000
0.433333
0.450000
0.429167
0.370833
0.458333
0.420833
0.529167
0.429167
0.387500
0.541667
0.883333
0.379167
0.383333
0.383333
0.333333
0.433333
0.391667
0.441667
0.612500
0.408333
0.408333
0.508333
0.462500
0.370833
0.370833
0.475000
0.412500
0.454167
0.362500
0.362500
0.566667
0.516667
0.383333
0.387500
0.641667
0.525000
0.375000
0.333333
0.354167
0.391667
0.370833
0.379167
0.579167
0.437500
0.362500
0.362500
0.525000
0.466667
0.379167
0.362500
0.370833
0.370833
0.429167
0.441667
0.454167
0.462500
0.387500
0.437500
0.420833
0.441667
0.400000
0.466667
0.416667
0.545833
0.408333
0.412500
0.437500
0.425000
0.400000
0.483333
0.454167
0.391667
0.462500
0.445833
0.445833
0.500000
0.420833
0.429167
0.412500
0.416667
0.395833
0.587500
0.420833
0.312500
0.529167
0.241667
0.408333
0.470833
0.391667
0.387500
0.500000
0.437500
0.504167
0.604167
0.283333
0.370833
0.358333
0.350000
0.350000
0.416667
0.400000
0.466667
0.450000
0.633333
0.112500
0.775000
0.391667
0.362500
0.354167
0.187500
0.583333
0.450000
0.470833
0.366667
0.508333
0.545833
0.404167
0.395833
0.433333
0.462500
0.454167
0.545833
0.566667
0.383333
0.404167
0.404167
0.462500
0.566667
0.400000
0.362500
0.400000
0.429167
0.366667
0.375000
0.387500
0.529167
0.425000
0.408333
0.500000
0.420833
0.404167
0.500000
0.412500
0.470833
0.433333
0.391667
0.500000
0.200000
0.241667
0.387500
0.441667
0.441667
0.525000
0.487500
0.400000
