0.516667
0.520833
0.520833
0.420833
0.591667
0.525000
0.520833
0.525000
0.516667
0.520833
0.520833
0.516667
0.520833
0.516667
0.520833
0.525000
0.520833
0.520833
0.516667
0.520833
0.520833
0.520833
0.520833
0.516667
0.520833
0.520833
0.520833
0.516667
0.520833
0.520833
0.516667
0.520833
0.529167
0.520833
0.520833
0.516667
0.520833
0.525000
0.520833
0.516667
0.520833
0.516667
0.520833
0.520833
0.404167
0.595833
0.529167
0.520833
0.520833
0.516667
0.520833
0.525000
0.520833
0.516667
0.520833
0.462500
0.566667
0.520833
0.520833
0.520833
0.516667
0.520833
0.516667
0.525000
0.516667
0.520833
0.516667
0.412500
0.591667
0.525000
0.520833
0.525000
0.520833
0.520833
0.516667
0.516667
0.525000
0.520833
0.516667
0.520833
0.516667
0.516667
0.520833
0.454167
0.570833
0.533333
0.516667
0.408333
0.587500
0.520833
0.516667
0.416667
0.591667
0.525000
0.520833
0.520833
0.520833
0.520833
0.520833
0.520833
0.525000
0.520833
0.520833
0.429167
0.587500
0.529167
0.525000
0.520833
0.525000
0.520833
0.520833
0.525000
0.520833
0.520833
0.520833
0.412500
0.595833
0.533333
0.520833
0.520833
0.520833
0.520833
0.520833
0.520833
0.520833
0.520833
0.516667
0.412500
0.595833
0.529167
0.520833
0.520833
0.520833
0.520833
0.520833
0.520833
0.520833
0.520833
0.520833
0.525000
0.520833
0.516667
0.520833
0.520833
0.520833
0.516667
0.520833
0.287500
0.595833
0.550000
0.541667
0.525000
0.520833
0.520833
0.520833
0.520833
0.525000
0.516667
0.520833
0.525000
0.520833
0.520833
0.520833
0.520833
0.516667
0.525000
0.520833
0.520833
0.520833
0.520833
0.525000
0.520833
0.520833
0.520833
0.525000
0.520833
0.520833
0.520833
0.520833
0.520833
0.420833
0.595833
0.529167
0.520833
0.525000
0.525000
0.525000
0.525000
0.520833
0.520833
0.520833
0.525000
0.529167
0.520833
0.520833
0.520833
0.516667
0.520833
0.520833
0.520833
0.520833
0.520833
0.520833
0.516667
0.525000
0.520833
0.520833
0.525000
0.520833
0.520833
0.520833
0.520833
0.525000
0.520833
0.520833
0.520833
0.520833
0.520833
0.520833
0.516667
0.516667
0.520833
0.516667
0.420833
0.587500
0.525000
0.520833
0.525000
0.516667
0.520833
0.516667
0.520833
0.520833
0.516667
0.520833
0.525000
0.520833
0.520833
0.520833
0.520833
0.520833
0.516667
0.525000
0.525000
0.520833
0.516667
0.520833
0.520833
0.520833
0.520833
0.520833
0.520833
0.516667
0.520833
0.525000
0.520833
0.520833
0.525000
0.516667
0.520833
0.525000
0.520833
0.520833
0.516667
0.520833
0.516667
0.520833
0.525000
0.516667
0.520833
0.520833
0.520833
0.520833
0.516667
0.525000
0.529167
0.520833
0.520833
0.520833
0.520833
0.520833
0.525000
0.525000
0.520833
0.520833
0.495833
0.550000
0.520833
0.520833
0.525000
0.520833
0.525000
0.525000
0.520833
0.520833
0.520833
0.520833
0.520833
0.529167
0.520833
0.516667
0.520833
0.520833
0.525000
0.516667
0.433333
0.579167
0.525000
0.520833
0.520833
0.516667
0.525000
0.520833
0.520833
0.520833
0.516667
0.520833
0.525000
0.516667
0.520833
0.516667
0.516667
0.520833
0.520833
0.520833
0.520833
0.516667
0.520833
0.520833
0.516667
0.520833
0.529167
0.520833
0.516667
0.520833
0.520833
0.520833
0.520833
0.525000
0.520833
0.516667
0.516667
0.520833
0.520833
0.516667
0.520833
0.520833
0.520833
0.525000
0.520833
0.520833
0.520833
0.520833
0.516667
0.525000
0.525000
0.520833
0.520833
0.516667
0.520833
0.516667
0.416667
0.591667
0.537500
0.520833
0.516667
0.516667
0.516667
0.520833
0.516667
0.520833
0.516667
0.520833
0.400000
0.604167
0.529167
0.520833
0.520833
0.520833
0.520833
0.525000
0.516667
0.525000
0.520833
0.425000
0.591667
0.529167
0.520833
0.516667
0.516667
0.516667
0.520833
0.520833
0.520833
0.520833
0.520833
0.520833
0.525000
0.520833
0.525000
0.525000
0.520833
0.525000
0.525000
0.520833
0.525000
0.520833
0.525000
0.520833
0.525000
0.520833
0.525000
0.520833
0.520833
0.520833
0.520833
0.520833
0.516667
0.520833
0.520833
0.516667
0.520833
0.520833
0.516667
0.520833
0.520833
0.520833
0.516667
0.520833
0.520833
0.520833
0.516667
0.520833
0.516667
0.520833
0.520833
0.516667
0.516667
0.516667
0.516667
0.520833
0.516667
0.516667
0.516667
0.516667
0.429167
0.583333
0.525000
0.516667
0.520833
0.516667
0.520833
0.525000
0.520833
0.516667
0.520833
0.516667
0.516667
0.520833
0.516667
0.520833
0.520833
0.516667
0.516667
0.520833
0.520833
0.520833
0.416667
0.587500
0.525000
0.520833
0.516667
0.520833
0.516667
0.525000
0.520833
0.516667
0.516667
0.516667
0.445833
0.575000
0.525000
0.516667
0.429167
0.579167
0.529167
0.516667
0.400000
0.600000
0.525000
0.520833
0.516667
0.520833
0.520833
0.516667
0.520833
0.529167
0.516667
0.520833
0.516667
0.516667
0.520833
0.520833
0.516667
0.520833
0.516667
0.516667
0.516667
0.520833
0.516667
0.516667
0.520833
0.525000
0.516667
0.516667
0.520833
0.512500
0.520833
0.516667
0.520833
0.516667
0.516667
0.520833
0.516667
0.516667
0.516667
0.520833
0.516667
0.516667
0.520833
0.525000
0.520833
0.516667
0.520833
0.520833
0.520833
0.516667
0.520833
0.516667
0.525000
0.516667
0.520833
0.516667
0.516667
0.520833
0.520833
0.516667
0.520833
0.525000
0.525000
0.520833
0.516667
0.520833
0.400000
0.600000
0.529167
0.520833
0.520833
0.525000
0.520833
0.516667
0.516667
0.520833
0.520833
0.525000
0.520833
0.516667
0.520833
0.520833
0.516667
0.520833
0.441667
0.583333
0.529167
0.520833
0.520833
0.520833
0.525000
0.520833
0.520833
0.520833
0.520833
0.516667
0.529167
0.520833
0.520833
0.520833
0.520833
0.520833
0.520833
0.520833
0.529167
0.520833
0.520833
0.520833
0.520833
0.520833
0.525000
0.520833
0.520833
0.520833
0.520833
0.520833
0.516667
0.525000
0.520833
0.520833
0.520833
0.520833
0.520833
0.520833
0.520833
0.408333
0.604167
0.529167
0.520833
0.525000
0.520833
0.520833
0.516667
0.520833
0.516667
0.520833
0.525000
0.516667
0.520833
0.520833
0.520833
0.520833
0.408333
0.595833
0.537500
0.525000
0.520833
0.520833
0.529167
0.520833
0.520833
0.520833
0.516667
0.520833
0.520833
0.520833
0.520833
0.520833
0.516667
0.520833
0.520833
0.520833
0.395833
0.608333
0.533333
0.525000
0.525000
0.520833
0.520833
0.520833
0.525000
0.520833
0.520833
0.529167
0.520833
0.516667
0.520833
0.520833
0.520833
0.520833
0.520833
0.520833
0.520833
0.520833
0.520833
0.520833
0.520833
0.525000
0.525000
0.516667
0.520833
0.516667
0.520833
0.525000
0.525000
0.520833
0.516667
0.512500
0.512500
0.516667
0.516667
0.516667
0.516667
0.520833
0.516667
0.520833
0.520833
0.525000
0.520833
0.520833
0.525000
0.525000
0.520833
0.525000
0.525000
0.520833
0.525000
0.525000
0.520833
0.525000
0.520833
0.525000
0.520833
0.520833
0.520833
0.520833
0.520833
0.525000
0.520833
0.520833
0.520833
0.520833
0.520833
0.525000
0.520833
0.520833
0.520833
0.520833
0.520833
0.525000
0.520833
0.520833
0.520833
0.520833
0.516667
0.520833
0.520833
0.420833
0.591667
0.529167
0.520833
0.525000
0.520833
0.520833
0.379167
0.629167
0.529167
0.520833
0.520833
0.525000
0.512500
0.525000
0.520833
0.520833
0.516667
0.520833
0.520833
0.429167
0.583333
0.529167
0.520833
0.525000
0.525000
0.520833
0.520833
0.520833
0.516667
0.520833
0.520833
0.520833
0.525000
0.516667
0.520833
0.525000
0.520833
0.520833
0.520833
0.520833
0.525000
0.516667
0.525000
0.525000
0.516667
0.525000
0.420833
0.591667
0.525000
0.520833
0.520833
0.525000
0.520833
0.520833
0.516667
0.520833
0.520833
0.516667
0.400000
0.604167
0.533333
0.520833
0.520833
0.520833
0.520833
0.520833
0.525000
0.520833
0.520833
0.520833
0.525000
0.520833
0.520833
0.516667
0.437500
0.579167
0.533333
0.520833
0.520833
0.520833
0.516667
0.520833
0.520833
0.520833
0.520833
0.520833
0.529167
0.391667
0.608333
0.533333
0.520833
0.437500
0.587500
0.525000
0.520833
0.520833
0.520833
0.520833
0.520833
0.516667
0.520833
0.525000
0.525000
0.420833
0.587500
0.529167
0.520833
0.520833
0.520833
0.516667
0.525000
0.520833
0.520833
0.520833
0.525000
0.520833
0.520833
0.520833
0.520833
0.529167
0.520833
0.525000
0.520833
0.520833
0.520833
0.520833
0.529167
0.520833
0.520833
0.525000
0.520833
0.529167
0.520833
0.525000
0.520833
0.525000
0.529167
0.520833
0.520833
0.520833
0.520833
0.520833
0.525000
0.520833
0.520833
0.516667
0.520833
0.429167
0.587500
0.525000
0.520833
0.295833
0.650000
0.554167
0.520833
0.516667
0.520833
0.516667
0.520833
0.516667
0.520833
0.525000
0.520833
0.516667
0.516667
0.516667
0.520833
0.516667
0.516667
0.516667
0.525000
0.520833
0.516667
0.516667
0.512500
0.520833
0.516667
0.516667
0.516667
0.516667
0.525000
0.512500
0.520833
0.525000
0.516667
0.516667
0.512500
0.512500
0.512500
0.516667
0.516667
0.512500
0.516667
0.516667
0.520833
0.516667
0.516667
0.520833
0.516667
0.520833
0.520833
0.520833
0.520833
0.520833
0.520833
0.520833
0.520833
0.520833
0.520833
0.520833
0.520833
0.520833
0.520833
0.520833
0.516667
0.520833
0.520833
0.520833
0.520833
0.516667
0.520833
0.520833
0.520833
0.420833
0.587500
0.529167
0.525000
0.516667
0.525000
0.516667
0.525000
0.516667
0.520833
0.520833
0.525000
0.520833
0.520833
0.445833
0.570833
0.525000
0.520833
0.416667
0.591667
0.529167
0.516667
0.520833
0.520833
0.525000
0.520833
0.437500
0.579167
0.525000
0.520833
0.520833
0.520833
0.520833
0.520833
0.525000
0.516667
0.516667
0.491667
0.545833
0.520833
0.516667
0.520833
0.525000
0.516667
0.520833
0.516667
0.525000
0.516667
0.520833
0.516667
0.516667
0.525000
0.516667
0.516667
0.516667
0.516667
0.520833
0.520833
0.516667
0.516667
0.516667
0.516667
0.516667
0.520833
0.516667
0.525000
0.520833
0.408333
0.595833
0.525000
0.516667
0.525000
0.516667
0.516667
0.520833
0.512500
0.520833
0.516667
0.516667
0.520833
0.520833
0.420833
0.587500
0.525000
0.520833
0.520833
0.520833
0.520833
0.525000
0.520833
0.516667
0.516667
0.437500
0.579167
0.520833
0.525000
0.416667
0.591667
0.529167
0.520833
0.525000
0.520833
0.525000
0.520833
0.520833
0.520833
0.525000
0.520833
0.525000
0.520833
0.525000
0.525000
0.525000
0.520833
0.525000
0.525000
0.525000
0.425000
0.595833
0.529167
0.525000
0.525000
0.525000
0.520833
0.520833
0.525000
0.525000
0.525000
0.520833
0.525000
0.525000
0.520833
0.525000
0.529167
0.525000
0.520833
0.529167
0.529167
0.520833
0.525000
0.520833
0.525000
0.520833
0.525000
0.525000
0.520833
0.529167
0.525000
0.520833
0.525000
0.520833
0.525000
0.525000
0.525000
0.525000
0.529167
0.525000
0.525000
0.525000
0.520833
0.525000
0.529167
0.520833
0.525000
0.525000
0.529167
0.520833
0.525000
0.520833
0.520833
0.525000
0.520833
0.525000
0.525000
0.525000
0.525000
0.525000
0.525000
0.525000
0.525000
0.525000
0.529167
0.525000
0.520833
0.525000
0.525000
0.520833
0.525000
0.525000
0.525000
0.525000
0.525000
0.525000
0.525000
0.529167
0.529167
0.529167
0.525000
0.529167
0.525000
0.525000
0.525000
0.529167
0.525000
0.525000
0.529167
0.525000
0.525000
0.520833
0.525000
0.525000
0.525000
0.520833
0.529167
0.520833
0.525000
0.525000
0.520833
0.525000
0.525000
0.520833
0.525000
0.525000
0.525000
0.525000
0.520833
0.525000
0.520833
0.525000
0.525000
0.520833
0.520833
0.520833
0.529167
0.520833
0.525000
0.520833
0.525000
0.520833
0.520833
0.529167
0.525000
