1.516667
1.512500
1.508333
0.729167
0.533333
0.375000
0.362500
0.325000
0.320833
0.300000
0.325000
1.616667
0.608333
0.483333
0.616667
0.695833
0.679167
0.895833
0.658333
0.641667
0.625000
0.620833
0.579167
0.704167
0.683333
0.825000
0.654167
0.537500
0.400000
0.250000
0.316667
0.337500
0.350000
0.350000
0.350000
0.333333
0.329167
0.341667
0.395833
0.612500
1.316667
0.433333
1.354167
0.450000
1.275000
0.720833
0.716667
0.712500
0.729167
0.529167
0.704167
0.512500
0.633333
0.616667
0.700000
0.554167
0.629167
0.500000
0.725000
0.750000
0.550000
0.887500
0.412500
0.325000
0.287500
0.429167
0.212500
0.320833
0.470833
0.233333
0.337500
0.333333
0.329167
0.237500
0.566667
0.254167
0.345833
0.316667
0.295833
0.304167
0.229167
0.320833
0.429167
0.333333
0.345833
0.333333
0.320833
0.295833
0.295833
0.320833
0.358333
0.354167
0.329167
0.345833
0.333333
0.316667
0.316667
0.320833
0.304167
0.300000
0.479167
1.058333
0.250000
0.312500
0.325000
0.233333
0.754167
0.250000
0.312500
0.329167
0.329167
0.316667
0.329167
0.345833
0.237500
0.383333
0.516667
0.258333
0.325000
0.325000
0.333333
0.304167
0.308333
0.333333
0.345833
0.325000
0.320833
0.316667
0.333333
0.320833
0.350000
0.358333
0.316667
0.308333
0.362500
0.350000
0.320833
0.229167
0.395833
0.308333
0.325000
0.304167
0.316667
0.225000
0.404167
0.300000
0.333333
0.487500
0.220833
0.225000
0.375000
0.316667
0.354167
0.354167
0.358333
0.358333
0.329167
0.358333
0.387500
0.612500
0.258333
0.479167
0.337500
0.295833
0.312500
0.295833
0.283333
0.320833
0.329167
0.320833
0.333333
0.304167
0.291667
0.316667
0.333333
0.320833
0.345833
0.383333
0.333333
0.316667
0.333333
0.529167
0.645833
0.245833
0.337500
0.325000
0.312500
0.329167
0.337500
0.333333
0.320833
0.329167
0.312500
0.337500
0.329167
0.345833
0.316667
0.329167
0.337500
0.229167
0.400000
0.308333
0.312500
0.325000
0.329167
0.225000
0.404167
0.320833
0.320833
0.320833
0.358333
0.325000
0.295833
0.275000
0.287500
0.208333
0.491667
0.362500
0.325000
0.341667
0.325000
0.325000
0.220833
0.408333
0.337500
0.329167
0.316667
0.366667
0.345833
0.366667
0.387500
0.341667
0.329167
0.320833
0.316667
0.337500
0.337500
0.329167
0.325000
0.320833
0.358333
0.354167
0.325000
0.312500
0.345833
0.395833
0.354167
0.341667
0.391667
0.325000
0.325000
0.337500
0.308333
0.216667
0.412500
0.395833
0.345833
0.333333
0.350000
0.333333
0.333333
0.354167
0.625000
0.266667
0.358333
0.608333
0.283333
0.425000
0.400000
0.533333
0.554167
0.379167
0.333333
0.300000
0.300000
0.345833
0.337500
0.308333
0.308333
0.216667
0.325000
0.400000
0.337500
0.325000
0.354167
0.658333
0.533333
0.291667
0.312500
0.341667
0.362500
0.608333
0.279167
0.341667
0.320833
0.329167
0.358333
0.341667
0.320833
0.295833
0.370833
0.358333
0.320833
0.216667
0.412500
0.320833
0.304167
0.358333
0.354167
0.337500
0.316667
0.312500
0.345833
0.362500
0.329167
0.320833
0.379167
0.225000
0.395833
0.308333
0.337500
0.320833
0.291667
0.316667
0.370833
0.337500
0.325000
0.325000
0.295833
0.300000
0.329167
0.329167
0.379167
0.345833
0.325000
0.295833
0.291667
0.304167
0.325000
0.320833
0.220833
0.420833
0.337500
0.345833
0.325000
0.325000
0.350000
0.333333
0.333333
0.304167
0.295833
0.316667
0.375000
0.366667
0.366667
0.379167
0.341667
0.329167
0.320833
0.316667
0.220833
0.379167
0.329167
0.350000
0.350000
0.320833
0.283333
0.300000
0.325000
0.337500
0.337500
0.345833
0.337500
0.341667
0.312500
0.320833
0.350000
0.341667
0.320833
0.312500
0.304167
0.329167
0.370833
0.333333
0.316667
0.308333
0.337500
0.225000
0.408333
0.354167
0.329167
0.320833
0.312500
0.312500
0.316667
0.304167
0.304167
0.320833
0.358333
0.333333
0.308333
0.295833
0.312500
0.320833
0.212500
0.412500
0.316667
0.325000
0.316667
0.320833
0.375000
0.345833
0.329167
0.333333
0.350000
0.608333
0.262500
0.329167
0.320833
0.350000
0.366667
0.341667
0.316667
0.320833
0.216667
0.404167
0.341667
0.320833
0.320833
0.300000
0.362500
0.341667
0.333333
0.312500
0.312500
0.358333
0.345833
0.379167
0.579167
0.262500
0.350000
0.412500
0.408333
0.329167
0.312500
0.320833
0.325000
0.220833
0.379167
0.275000
0.287500
0.320833
0.325000
0.358333
0.366667
0.337500
0.508333
0.400000
0.354167
0.341667
0.354167
0.366667
0.333333
0.329167
0.329167
0.279167
0.312500
0.312500
0.320833
0.216667
0.400000
0.216667
0.404167
0.329167
0.329167
0.366667
0.625000
0.266667
0.404167
0.354167
0.320833
0.216667
0.408333
0.366667
0.341667
0.333333
0.358333
0.383333
0.345833
0.325000
0.316667
0.308333
0.562500
0.266667
0.454167
0.629167
0.370833
0.312500
0.308333
0.312500
0.366667
0.354167
0.312500
0.341667
0.404167
0.341667
0.316667
0.316667
0.312500
0.337500
0.554167
0.354167
0.395833
1.850000
0.887500
0.845833
0.937500
1.062500
1.008333
1.150000
0.912500
0.879167
0.750000
0.825000
0.833333
0.754167
0.766667
1.212500
0.858333
0.825000
0.795833
0.733333
0.754167
1.262500
0.837500
0.829167
0.804167
0.716667
0.716667
0.720833
0.729167
0.729167
0.725000
0.725000
1.212500
0.554167
1.100000
0.558333
1.079167
0.566667
0.966667
0.554167
1.070833
0.558333
1.045833
0.800000
0.545833
1.008333
0.766667
0.541667
0.950000
0.558333
0.991667
0.787500
0.554167
0.920833
0.795833
0.554167
0.887500
0.750000
0.550000
0.804167
0.437500
0.950000
0.558333
0.504167
0.800000
0.429167
0.379167
0.370833
1.016667
0.762500
0.641667
0.616667
0.570833
0.591667
0.695833
0.633333
0.658333
0.379167
0.333333
0.525000
0.637500
0.479167
0.495833
1.262500
0.429167
1.354167
0.704167
0.579167
0.662500
0.629167
0.637500
0.716667
0.291667
0.716667
1.362500
0.729167
0.741667
0.662500
0.737500
0.604167
0.629167
0.591667
0.570833
0.566667
0.604167
0.591667
0.608333
0.604167
0.829167
0.537500
0.408333
0.241667
0.308333
0.316667
0.320833
0.320833
0.229167
0.320833
0.420833
0.362500
0.337500
0.333333
0.320833
0.325000
0.512500
0.466667
0.479167
0.241667
0.295833
0.325000
0.345833
0.333333
0.329167
0.350000
0.333333
0.320833
0.316667
0.291667
0.291667
0.287500
0.300000
0.341667
0.350000
0.329167
0.316667
0.312500
0.358333
0.362500
0.370833
0.345833
0.337500
0.379167
0.341667
0.304167
0.291667
0.300000
0.325000
0.304167
0.308333
0.329167
0.325000
0.291667
0.333333
0.387500
0.341667
0.320833
0.325000
0.354167
0.404167
0.487500
0.379167
0.316667
0.487500
0.466667
0.237500
0.316667
0.316667
0.316667
0.329167
0.341667
0.312500
0.325000
0.358333
0.329167
0.312500
0.308333
0.308333
0.320833
0.316667
0.362500
0.341667
0.308333
0.312500
0.295833
0.300000
0.300000
0.316667
0.329167
0.350000
0.337500
0.320833
0.312500
0.225000
0.387500
0.308333
0.316667
0.229167
0.437500
0.333333
0.229167
0.425000
0.329167
0.341667
0.333333
0.316667
0.300000
0.400000
0.458333
1.391667
0.333333
0.716667
1.416667
0.320833
1.354167
0.420833
1.391667
0.337500
1.258333
0.420833
1.300000
1.520833
1.562500
1.637500
1.620833
0.812500
1.566667
0.779167
1.725000
1.754167
1.695833
0.733333
0.654167
0.537500
0.254167
0.300000
0.291667
0.333333
0.525000
0.250000
0.287500
0.337500
0.308333
0.279167
0.329167
0.329167
0.325000
0.337500
0.333333
0.329167
0.350000
0.354167
0.345833
0.345833
0.325000
0.316667
0.312500
0.300000
0.366667
0.391667
0.350000
0.341667
0.333333
0.375000
0.337500
0.329167
0.333333
0.341667
0.329167
0.454167
0.225000
0.329167
1.691667
0.425000
0.316667
0.591667
0.466667
0.241667
0.320833
0.333333
0.316667
0.237500
0.408333
0.333333
0.504167
0.254167
0.441667
0.345833
0.358333
0.354167
0.316667
0.295833
0.300000
0.295833
0.329167
0.345833
0.320833
0.320833
0.333333
0.320833
0.316667
0.300000
0.325000
0.354167
0.354167
0.337500
0.362500
0.354167
0.541667
0.320833
0.320833
0.291667
0.287500
0.295833
0.316667
0.316667
0.329167
0.316667
0.312500
0.400000
0.408333
0.362500
0.387500
0.408333
0.358333
0.341667
0.320833
0.300000
0.316667
0.325000
0.337500
0.325000
0.337500
0.350000
0.333333
0.529167
0.716667
0.570833
0.604167
0.250000
0.566667
0.237500
0.304167
0.345833
0.329167
0.312500
0.287500
0.308333
0.329167
0.320833
0.304167
0.308333
0.333333
0.316667
0.291667
0.304167
0.383333
0.337500
0.225000
0.312500
0.404167
0.300000
0.354167
0.358333
0.329167
0.329167
0.316667
0.308333
0.337500
0.516667
0.537500
0.137500
0.408333
0.316667
0.320833
0.325000
0.329167
0.320833
0.308333
0.295833
0.316667
0.337500
0.316667
0.220833
0.412500
0.316667
0.304167
0.279167
0.341667
0.329167
0.316667
0.308333
0.341667
0.387500
0.329167
0.383333
0.379167
0.341667
0.337500
0.345833
0.370833
0.595833
0.237500
0.545833
0.637500
0.312500
0.316667
0.341667
0.337500
0.325000
0.333333
0.295833
0.279167
0.337500
0.341667
0.337500
0.350000
0.333333
0.337500
0.333333
0.329167
0.325000
0.337500
0.383333
0.325000
0.325000
0.312500
0.295833
0.308333
0.329167
0.345833
0.229167
0.408333
0.312500
0.325000
0.350000
0.366667
0.370833
0.516667
0.416667
0.370833
0.350000
0.316667
0.329167
0.441667
1.354167
0.341667
1.337500
0.341667
1.358333
0.337500
1.450000
0.337500
1.370833
0.333333
1.337500
0.337500
1.225000
0.429167
1.208333
0.433333
1.204167
0.441667
1.204167
1.641667
1.658333
1.645833
1.658333
1.650000
1.650000
1.654167
1.654167
1.641667
0.741667
0.645833
0.500000
1.350000
0.725000
0.416667
0.329167
0.612500
0.550000
1.566667
0.741667
0.687500
0.687500
0.758333
0.658333
0.600000
0.400000
0.362500
0.350000
0.345833
0.341667
0.350000
0.350000
0.341667
1.479167
0.520833
0.587500
0.741667
0.554167
0.629167
0.612500
0.587500
0.625000
0.666667
0.654167
0.658333
0.645833
0.716667
0.420833
0.358333
0.333333
0.245833
0.641667
0.362500
0.291667
0.312500
0.312500
0.291667
0.320833
0.320833
0.345833
0.329167
0.312500
0.308333
0.354167
0.345833
0.320833
0.304167
0.325000
0.354167
0.354167
0.345833
0.333333
0.329167
0.337500
0.325000
0.325000
0.320833
0.316667
0.308333
0.475000
0.245833
0.329167
0.329167
0.329167
0.333333
0.329167
0.320833
0.320833
0.325000
0.329167
0.329167
0.320833
0.320833
0.312500
0.312500
0.304167
0.316667
0.325000
0.333333
0.337500
0.316667
0.325000
0.329167
0.345833
0.333333
0.320833
0.316667
0.329167
0.333333
0.400000
0.362500
0.316667
0.308333
0.325000
0.325000
0.316667
0.308333
0.329167
0.354167
0.337500
0.229167
0.395833
0.358333
0.337500
0.312500
0.325000
0.329167
0.329167
0.312500
0.320833
0.370833
0.350000
0.233333
0.416667
0.333333
0.329167
0.312500
0.337500
0.337500
0.337500
0.337500
0.304167
0.291667
0.308333
0.333333
0.329167
0.325000
0.366667
0.391667
0.333333
0.312500
0.320833
0.304167
0.316667
0.325000
0.320833
0.304167
0.320833
0.345833
0.329167
0.325000
0.325000
0.333333
0.354167
0.345833
0.325000
0.304167
0.329167
0.333333
0.325000
0.350000
0.566667
0.250000
0.550000
0.229167
0.337500
0.370833
0.320833
0.337500
0.329167
0.308333
0.333333
0.225000
0.375000
0.312500
0.320833
0.387500
0.362500
0.325000
0.308333
0.287500
0.325000
0.358333
0.379167
0.604167
0.295833
0.345833
0.316667
0.295833
0.337500
0.329167
0.325000
0.354167
0.312500
0.270833
0.291667
0.312500
0.295833
0.316667
0.383333
0.354167
0.354167
0.320833
0.312500
0.341667
0.333333
0.341667
0.345833
0.337500
0.370833
0.350000
0.370833
0.337500
0.316667
0.308333
0.308333
0.300000
0.295833
0.291667
0.312500
0.308333
0.316667
0.325000
0.220833
0.400000
0.329167
0.333333
0.220833
0.437500
0.333333
0.350000
0.225000
0.420833
0.350000
0.345833
0.316667
0.329167
0.358333
0.433333
0.566667
0.283333
0.316667
0.275000
0.275000
0.329167
0.329167
0.320833
0.320833
0.354167
0.337500
0.320833
0.333333
0.337500
0.325000
0.316667
0.329167
0.316667
0.337500
0.420833
0.358333
0.337500
0.400000
0.354167
0.312500
0.308333
0.333333
0.316667
0.325000
0.312500
0.320833
0.329167
0.300000
0.312500
0.333333
0.341667
0.220833
0.387500
0.629167
0.233333
0.316667
0.295833
0.316667
0.341667
0.225000
0.312500
0.383333
0.287500
0.345833
0.358333
0.383333
0.358333
0.341667
0.333333
0.345833
0.362500
0.470833
0.633333
0.291667
0.325000
0.308333
0.312500
0.337500
0.312500
0.308333
0.308333
0.312500
0.366667
0.391667
0.341667
0.379167
1.733333
0.895833
0.804167
0.916667
1.183333
0.875000
0.837500
0.829167
0.745833
0.712500
0.762500
1.208333
0.883333
0.837500
0.820833
0.737500
0.716667
1.341667
1.420833
1.437500
1.425000
1.445833
1.462500
1.504167
1.725000
1.704167
1.687500
0.845833
1.645833
0.791667
0.829167
1.416667
0.750000
1.741667
1.725000
0.725000
0.637500
0.662500
0.658333
0.554167
0.612500
0.387500
0.345833
0.312500
0.283333
0.295833
0.325000
0.312500
0.337500
0.333333
0.475000
0.220833
0.320833
0.566667
0.241667
0.320833
0.520833
0.237500
0.325000
0.350000
0.487500
0.229167
0.295833
0.275000
0.275000
0.425000
0.541667
0.262500
0.570833
0.704167
0.575000
0.450000
0.241667
0.337500
0.350000
0.495833
0.254167
0.354167
0.350000
0.333333
0.325000
0.308333
0.516667
0.245833
0.308333
0.287500
0.320833
0.325000
0.316667
0.329167
0.375000
