0.354167
0.558333
0.458333
0.458333
0.241667
0.216667
0.454167
0.454167
0.466667
0.454167
0.454167
0.454167
0.258333
0.195833
0.308333
0.608333
0.454167
0.454167
0.345833
0.575000
0.454167
0.458333
0.462500
0.466667
0.458333
0.454167
0.458333
0.450000
0.458333
0.454167
0.450000
0.454167
0.454167
0.458333
0.445833
0.450000
0.454167
0.454167
0.458333
0.454167
0.454167
0.466667
0.458333
0.462500
0.458333
0.454167
0.462500
0.466667
0.287500
0.179167
0.462500
0.466667
0.462500
0.458333
0.466667
0.458333
0.450000
0.462500
0.462500
0.466667
0.462500
0.462500
0.458333
0.458333
0.458333
0.458333
0.450000
0.458333
0.462500
0.454167
0.454167
0.450000
0.450000
0.908333
0.441667
0.458333
0.445833
0.462500
0.454167
0.454167
0.458333
0.458333
0.462500
0.454167
0.450000
0.450000
0.454167
0.904167
0.445833
0.450000
0.450000
0.908333
0.445833
0.462500
0.458333
0.462500
0.466667
0.454167
0.458333
0.462500
0.470833
0.458333
0.458333
0.462500
0.462500
0.466667
0.458333
0.454167
0.454167
0.454167
0.458333
0.454167
0.454167
0.450000
0.454167
0.458333
0.454167
0.454167
0.454167
0.458333
0.462500
0.450000
0.454167
0.466667
0.466667
0.462500
0.458333
0.454167
0.458333
0.458333
0.458333
0.458333
0.450000
0.454167
0.458333
0.462500
0.458333
0.445833
0.458333
0.450000
0.462500
0.454167
0.450000
0.454167
0.450000
0.454167
0.441667
0.445833
0.445833
0.895833
0.445833
0.445833
0.450000
0.454167
0.445833
0.450000
0.450000
0.450000
0.450000
0.450000
0.445833
0.445833
0.445833
0.445833
0.458333
0.450000
0.445833
0.445833
0.454167
0.458333
0.904167
0.450000
0.450000
0.454167
0.454167
0.445833
0.441667
0.450000
0.450000
0.370833
0.533333
0.445833
0.450000
0.454167
0.450000
0.454167
0.445833
0.450000
0.450000
0.454167
0.904167
0.445833
0.450000
0.450000
0.450000
0.458333
0.454167
0.450000
0.458333
0.462500
0.470833
0.470833
0.462500
0.462500
0.458333
0.458333
0.450000
0.450000
0.450000
0.445833
0.445833
0.445833
0.437500
0.445833
0.445833
0.408333
0.487500
0.454167
0.445833
0.445833
0.454167
0.900000
0.354167
0.541667
0.454167
0.462500
0.462500
0.462500
0.454167
0.454167
0.458333
0.925000
0.458333
0.454167
0.908333
0.450000
0.450000
0.454167
0.450000
0.904167
0.445833
0.450000
0.445833
0.445833
0.445833
0.441667
0.445833
0.445833
0.445833
0.441667
0.450000
0.895833
0.445833
0.445833
0.441667
0.445833
0.445833
0.450000
0.441667
0.445833
0.887500
0.441667
0.445833
0.441667
0.450000
0.891667
0.441667
0.445833
0.445833
0.445833
0.891667
0.445833
0.437500
0.445833
0.445833
0.891667
0.441667
0.441667
0.445833
0.445833
0.887500
0.445833
0.441667
0.445833
0.895833
0.437500
0.445833
0.445833
0.441667
0.441667
0.891667
0.437500
0.445833
0.441667
0.445833
0.450000
0.445833
0.895833
0.895833
0.895833
0.450000
0.450000
0.891667
0.437500
0.450000
0.445833
0.445833
0.891667
0.441667
0.437500
0.445833
0.441667
0.441667
0.441667
0.879167
0.441667
0.437500
0.883333
0.441667
0.445833
0.445833
0.441667
0.445833
0.887500
0.441667
0.445833
0.450000
0.450000
0.445833
0.450000
0.445833
0.895833
0.891667
0.450000
0.450000
0.445833
0.450000
0.895833
0.445833
0.895833
0.450000
0.450000
0.445833
0.450000
0.895833
0.441667
0.904167
0.450000
0.450000
0.445833
0.900000
0.445833
0.445833
0.445833
0.445833
0.445833
0.445833
0.450000
0.895833
0.454167
0.454167
0.454167
0.454167
0.908333
0.450000
0.454167
0.450000
0.454167
0.908333
0.445833
0.462500
0.458333
0.462500
0.458333
0.916667
0.454167
0.454167
0.454167
0.908333
0.450000
0.454167
0.458333
0.912500
0.458333
0.454167
0.458333
0.458333
0.458333
0.916667
0.450000
0.466667
0.470833
0.470833
0.466667
0.470833
0.470833
0.466667
0.933333
0.462500
0.466667
0.462500
0.462500
0.466667
0.462500
0.466667
0.462500
0.925000
0.458333
0.462500
0.466667
0.925000
0.462500
0.466667
0.466667
0.462500
0.408333
0.520833
0.933333
0.475000
0.479167
0.470833
0.950000
0.475000
0.475000
0.475000
0.470833
0.945833
0.470833
0.466667
0.470833
0.470833
0.475000
0.479167
0.470833
0.475000
0.954167
0.466667
0.470833
0.475000
0.470833
0.470833
0.941667
0.470833
0.470833
0.470833
0.475000
0.950000
0.470833
0.479167
0.487500
0.491667
0.491667
0.487500
0.970833
0.475000
0.487500
0.491667
0.487500
0.487500
0.970833
0.479167
0.479167
0.479167
0.950000
0.475000
0.475000
0.479167
0.479167
0.954167
0.475000
0.491667
0.487500
0.483333
0.487500
0.966667
0.958333
0.487500
0.487500
0.487500
0.483333
0.966667
0.479167
0.479167
0.325000
0.625000
0.970833
0.479167
0.479167
0.479167
0.483333
0.966667
0.479167
0.479167
0.491667
0.491667
0.491667
0.983333
0.483333
0.483333
0.483333
0.479167
0.479167
0.954167
0.475000
0.483333
0.487500
0.483333
0.483333
0.962500
0.958333
0.491667
0.487500
0.491667
0.483333
0.487500
0.966667
0.483333
0.491667
0.491667
0.487500
0.491667
0.966667
0.483333
0.483333
0.483333
0.958333
0.475000
0.483333
0.487500
0.483333
0.483333
0.966667
0.479167
0.479167
0.483333
0.483333
0.970833
0.479167
0.479167
0.491667
0.487500
0.495833
0.975000
0.483333
0.487500
0.487500
0.966667
0.483333
0.483333
0.479167
0.483333
0.966667
0.962500
0.495833
0.495833
0.491667
0.491667
0.983333
0.487500
0.483333
0.487500
0.491667
0.487500
0.970833
0.487500
0.500000
0.495833
0.987500
0.487500
0.491667
0.487500
0.491667
0.975000
0.479167
0.487500
0.483333
0.970833
0.479167
0.483333
0.483333
0.975000
0.487500
0.487500
0.491667
0.991667
0.491667
0.495833
0.495833
0.500000
0.995833
0.987500
0.504167
0.504167
0.500000
0.991667
0.495833
0.491667
0.491667
0.983333
0.487500
0.487500
0.487500
0.970833
0.483333
0.487500
0.966667
0.970833
0.479167
0.495833
0.495833
0.491667
0.495833
0.491667
0.979167
0.483333
0.491667
0.487500
0.970833
0.483333
0.483333
0.487500
0.487500
0.975000
0.483333
0.495833
0.495833
0.491667
0.491667
0.983333
0.487500
0.500000
0.500000
0.495833
0.491667
0.983333
0.487500
0.491667
0.491667
0.979167
0.487500
0.487500
0.491667
0.487500
0.487500
0.495833
0.987500
0.491667
0.491667
0.500000
0.491667
0.991667
0.441667
0.533333
1.000000
0.491667
0.491667
0.495833
0.500000
0.495833
0.987500
0.495833
0.508333
0.504167
0.508333
0.512500
1.008333
0.500000
0.495833
0.495833
0.500000
0.500000
0.995833
0.491667
0.504167
0.504167
0.500000
0.504167
1.004167
0.491667
0.512500
0.516667
0.512500
0.508333
0.504167
0.495833
0.504167
0.495833
0.500000
0.491667
0.495833
0.491667
0.491667
0.491667
0.491667
0.491667
0.491667
0.491667
0.487500
0.491667
0.491667
0.491667
0.491667
0.491667
0.495833
0.495833
0.495833
0.495833
0.495833
0.508333
0.512500
0.508333
0.512500
0.512500
0.508333
0.500000
0.504167
0.500000
0.500000
0.500000
0.495833
0.491667
0.512500
0.504167
0.504167
0.504167
0.500000
0.500000
0.491667
0.500000
0.500000
0.495833
0.495833
0.495833
0.491667
0.508333
0.504167
0.504167
0.504167
0.504167
0.504167
0.500000
0.504167
0.512500
0.508333
0.508333
0.504167
0.508333
0.500000
0.500000
0.500000
0.500000
0.500000
0.500000
0.504167
0.495833
0.512500
0.512500
0.512500
0.512500
0.504167
0.508333
0.495833
0.504167
0.500000
0.500000
0.500000
0.495833
0.500000
0.504167
0.495833
0.500000
0.500000
0.491667
0.508333
0.512500
0.512500
0.508333
0.508333
0.512500
0.508333
0.504167
0.504167
0.504167
0.504167
0.500000
0.495833
0.504167
0.495833
0.500000
0.504167
0.495833
0.491667
0.504167
0.508333
0.508333
0.508333
0.516667
0.512500
0.508333
0.520833
0.545833
0.533333
0.525000
0.520833
0.516667
0.516667
0.508333
0.500000
0.508333
0.500000
0.504167
0.500000
0.495833
0.512500
0.508333
0.508333
0.504167
0.504167
0.512500
0.508333
0.533333
0.537500
0.520833
0.520833
0.520833
0.516667
0.512500
0.504167
0.508333
0.508333
0.500000
0.508333
0.508333
0.504167
0.508333
0.504167
0.504167
0.508333
0.504167
0.508333
0.512500
0.512500
0.508333
0.512500
0.516667
0.512500
0.512500
0.516667
0.516667
0.558333
0.583333
0.558333
0.550000
0.545833
0.537500
0.533333
0.529167
0.516667
0.516667
0.516667
0.508333
0.529167
0.533333
0.525000
0.516667
0.516667
0.512500
0.512500
0.512500
0.504167
0.504167
0.508333
0.508333
0.504167
0.504167
0.508333
0.500000
0.500000
0.508333
0.508333
0.508333
0.504167
0.516667
0.520833
0.516667
0.516667
0.512500
0.520833
0.516667
0.508333
0.516667
0.508333
0.512500
0.508333
0.512500
0.525000
0.533333
0.537500
0.533333
0.525000
0.516667
0.520833
0.520833
0.520833
0.516667
0.516667
0.508333
0.520833
0.516667
0.512500
0.512500
0.520833
0.512500
0.508333
0.508333
0.508333
0.508333
0.508333
0.512500
0.504167
0.508333
0.504167
0.508333
0.512500
0.508333
0.508333
0.516667
0.516667
0.520833
0.516667
0.516667
0.516667
0.520833
0.516667
0.520833
0.512500
0.533333
0.550000
0.541667
0.533333
0.533333
0.529167
0.529167
0.525000
0.525000
0.520833
0.520833
0.516667
0.516667
0.525000
0.529167
0.525000
0.525000
0.520833
0.520833
0.520833
0.516667
0.520833
0.516667
0.516667
0.520833
0.512500
0.529167
0.533333
0.529167
0.529167
0.525000
0.529167
0.516667
0.520833
0.516667
0.520833
0.520833
0.525000
0.520833
0.520833
0.520833
0.512500
0.520833
0.520833
0.516667
0.516667
0.512500
0.529167
0.516667
0.533333
0.545833
0.541667
0.537500
0.525000
0.529167
0.520833
0.525000
0.516667
0.516667
0.520833
0.512500
0.516667
0.516667
0.520833
0.516667
0.520833
0.520833
0.516667
0.516667
0.516667
0.516667
0.516667
0.512500
0.512500
0.529167
0.512500
0.516667
0.520833
0.520833
0.525000
0.516667
0.520833
0.541667
0.541667
0.533333
0.533333
0.533333
0.533333
0.520833
0.529167
0.525000
0.525000
0.525000
0.525000
0.541667
0.541667
0.533333
0.529167
0.525000
0.525000
0.525000
0.516667
0.516667
0.516667
0.520833
0.525000
0.525000
0.520833
0.520833
0.520833
0.512500
0.512500
0.512500
0.512500
0.508333
0.520833
0.516667
0.516667
0.516667
0.512500
0.520833
0.516667
0.512500
0.516667
0.512500
0.516667
0.512500
0.516667
0.516667
0.520833
0.520833
0.512500
0.516667
0.520833
0.516667
0.516667
0.516667
0.520833
0.525000
0.520833
0.525000
0.516667
0.516667
0.516667
0.512500
0.525000
0.516667
0.529167
0.550000
0.537500
0.537500
0.529167
0.533333
0.525000
0.525000
0.533333
0.529167
0.525000
0.525000
0.520833
0.516667
0.516667
0.516667
0.516667
0.512500
0.516667
0.516667
0.512500
0.516667
0.508333
0.516667
0.520833
0.516667
0.516667
0.533333
0.525000
0.520833
0.520833
0.520833
0.516667
0.516667
0.516667
0.512500
0.516667
0.520833
0.512500
0.516667
0.516667
0.516667
0.516667
0.516667
0.516667
0.516667
0.512500
0.520833
0.516667
0.512500
0.516667
0.520833
0.520833
0.525000
0.516667
0.520833
0.520833
0.520833
0.462500
0.587500
0.533333
0.525000
0.529167
0.533333
0.525000
0.533333
0.550000
0.541667
0.537500
0.537500
0.533333
0.529167
0.529167
0.533333
0.525000
0.520833
0.520833
0.516667
0.516667
0.516667
0.516667
0.516667
0.516667
0.529167
0.529167
0.529167
0.525000
0.520833
0.520833
0.529167
0.525000
0.520833
0.520833
0.525000
0.516667
0.520833
0.520833
0.520833
0.520833
0.525000
0.520833
0.525000
0.525000
0.529167
0.529167
0.525000
