0.679167
0.358333
0.725000
0.541667
0.545833
0.458333
0.541667
0.650000
0.554167
0.370833
0.358333
0.458333
0.595833
0.375000
0.483333
0.429167
0.600000
0.408333
0.441667
0.454167
0.479167
0.495833
0.600000
0.383333
0.583333
0.429167
0.666667
0.595833
1.125000
0.562500
0.408333
0.416667
0.654167
0.541667
0.554167
0.416667
0.508333
0.466667
0.445833
0.379167
0.429167
0.629167
0.579167
1.133333
0.483333
0.450000
0.629167
1.208333
0.454167
0.654167
0.645833
0.450000
0.583333
0.687500
0.525000
0.483333
0.654167
0.379167
0.608333
0.583333
0.708333
0.583333
0.675000
0.612500
0.420833
0.495833
0.704167
0.591667
0.662500
0.579167
0.345833
0.337500
0.525000
0.379167
0.633333
0.587500
0.391667
0.604167
0.416667
0.679167
0.600000
0.666667
0.595833
0.445833
0.633333
0.520833
0.391667
0.616667
0.433333
0.487500
0.545833
0.420833
0.587500
0.666667
0.612500
0.429167
0.383333
0.462500
0.562500
0.575000
0.487500
0.670833
0.595833
0.483333
0.404167
0.412500
0.400000
0.679167
0.504167
0.395833
0.575000
0.512500
0.591667
0.654167
0.450000
0.475000
0.633333
0.570833
0.416667
0.608333
0.629167
0.558333
0.408333
0.533333
0.545833
0.562500
0.475000
0.600000
0.491667
0.679167
0.475000
0.533333
0.591667
0.550000
0.383333
0.520833
0.575000
0.612500
0.425000
0.541667
0.641667
0.591667
1.150000
0.466667
0.433333
0.650000
1.266667
0.537500
0.529167
0.483333
0.520833
0.587500
0.529167
0.466667
1.270833
0.437500
0.366667
0.520833
0.379167
0.516667
0.500000
0.529167
0.341667
0.575000
0.595833
1.100000
1.225000
0.595833
0.575000
1.054167
0.537500
0.625000
0.500000
0.537500
0.616667
0.341667
0.445833
0.579167
0.562500
0.508333
0.545833
0.441667
0.629167
0.629167
1.070833
0.554167
0.487500
0.545833
0.441667
0.537500
0.629167
0.662500
0.591667
0.620833
0.562500
0.616667
0.570833
0.633333
0.620833
0.400000
0.508333
1.191667
0.445833
0.433333
0.658333
0.483333
0.529167
0.566667
0.433333
0.633333
0.566667
0.491667
0.466667
0.629167
0.529167
0.662500
0.625000
1.183333
0.583333
0.583333
0.387500
0.525000
0.375000
0.691667
0.595833
0.500000
0.570833
0.587500
0.416667
0.612500
0.575000
0.641667
0.612500
0.541667
0.383333
0.495833
0.558333
0.600000
0.537500
0.425000
0.433333
0.616667
0.600000
1.125000
0.591667
0.445833
0.441667
0.337500
0.541667
0.454167
0.520833
0.566667
0.554167
0.370833
0.583333
0.537500
0.587500
0.375000
0.462500
0.454167
0.662500
0.441667
0.525000
0.541667
0.570833
0.483333
0.541667
0.558333
0.391667
0.512500
0.404167
0.612500
0.608333
0.562500
0.558333
0.575000
0.950000
0.562500
0.400000
0.608333
0.575000
0.583333
0.625000
0.566667
0.425000
0.520833
0.429167
0.475000
0.625000
0.433333
0.412500
0.429167
0.516667
0.516667
0.541667
0.650000
0.466667
0.637500
0.625000
1.166667
0.541667
0.420833
0.520833
0.616667
0.570833
0.462500
0.558333
0.479167
0.458333
0.500000
0.700000
0.575000
0.445833
0.612500
0.425000
0.562500
0.612500
0.450000
0.475000
0.637500
0.583333
0.425000
0.541667
0.441667
0.575000
0.666667
0.525000
0.608333
0.583333
0.633333
0.512500
0.425000
0.487500
0.629167
0.479167
0.691667
0.604167
0.562500
0.420833
0.550000
0.658333
0.412500
0.516667
0.562500
0.429167
0.591667
1.304167
1.229167
0.529167
0.450000
0.445833
0.491667
0.575000
0.395833
0.450000
0.641667
0.454167
0.441667
0.395833
0.608333
0.416667
0.458333
0.450000
0.600000
0.512500
0.600000
0.591667
0.479167
0.445833
0.495833
0.495833
0.450000
0.479167
0.387500
0.550000
0.337500
0.420833
0.416667
0.462500
0.662500
0.479167
0.537500
0.600000
0.545833
0.329167
0.595833
0.504167
0.450000
0.404167
0.529167
0.491667
0.366667
0.579167
0.604167
0.379167
0.370833
0.691667
0.545833
0.475000
0.591667
0.387500
0.504167
0.520833
1.233333
0.575000
0.579167
0.416667
0.554167
0.575000
0.437500
0.500000
0.462500
0.637500
0.420833
0.612500
0.362500
0.604167
0.629167
0.533333
0.645833
0.516667
0.450000
0.516667
0.441667
0.550000
0.412500
0.675000
0.458333
0.437500
0.637500
0.570833
0.366667
0.566667
0.512500
0.429167
0.600000
0.558333
1.250000
1.162500
0.495833
0.608333
0.529167
0.545833
0.670833
0.595833
0.587500
0.587500
0.470833
0.720833
0.604167
0.529167
0.650000
0.512500
0.500000
0.570833
0.541667
0.633333
0.433333
0.579167
0.425000
0.554167
0.679167
0.450000
0.400000
0.570833
0.700000
1.112500
0.545833
0.408333
0.662500
0.441667
0.462500
0.412500
0.541667
0.420833
0.504167
0.558333
0.558333
0.400000
0.466667
0.583333
0.625000
0.445833
0.395833
0.683333
1.020833
0.462500
0.387500
0.654167
0.504167
0.458333
0.445833
0.466667
0.516667
1.145833
0.437500
0.579167
0.420833
0.400000
0.470833
0.608333
0.583333
0.458333
0.445833
0.475000
0.425000
0.625000
0.375000
0.570833
0.504167
0.525000
0.508333
0.654167
0.454167
0.679167
0.420833
0.437500
0.620833
0.475000
0.637500
0.391667
0.612500
0.637500
0.591667
0.562500
0.641667
0.450000
0.412500
0.487500
0.420833
0.391667
0.479167
0.370833
0.587500
0.416667
0.504167
0.529167
0.566667
0.616667
0.587500
1.004167
0.579167
0.395833
0.675000
1.108333
0.612500
0.458333
0.620833
0.666667
0.575000
0.383333
0.500000
0.570833
0.458333
0.404167
0.591667
0.379167
0.550000
0.545833
0.383333
0.566667
0.483333
0.550000
0.412500
0.545833
0.666667
1.125000
0.533333
0.470833
0.600000
0.566667
0.520833
0.483333
0.450000
0.537500
0.479167
0.591667
0.370833
0.508333
0.595833
0.625000
1.141667
1.175000
0.595833
0.612500
0.608333
0.612500
0.529167
0.445833
0.487500
0.487500
0.625000
0.587500
0.554167
0.558333
0.420833
0.570833
0.420833
0.570833
0.383333
0.637500
0.529167
0.479167
0.425000
0.383333
0.529167
0.420833
0.479167
0.587500
0.629167
0.550000
0.570833
0.383333
0.641667
0.558333
0.333333
0.616667
0.650000
0.370833
0.537500
0.562500
0.404167
0.612500
0.375000
0.566667
0.670833
0.575000
1.066667
0.508333
0.412500
0.620833
0.454167
0.400000
0.412500
0.433333
0.450000
0.454167
0.508333
0.433333
0.475000
0.516667
0.429167
0.458333
0.400000
0.470833
0.437500
0.583333
0.454167
0.600000
0.583333
0.425000
0.387500
0.445833
0.587500
1.137500
0.387500
0.670833
0.558333
1.133333
0.441667
0.612500
0.395833
0.500000
0.395833
0.533333
0.437500
0.429167
0.520833
0.387500
0.654167
1.112500
0.416667
0.529167
0.345833
0.587500
1.195833
0.570833
0.404167
0.616667
0.458333
0.504167
0.625000
0.395833
0.341667
0.500000
0.525000
0.537500
0.566667
0.616667
0.437500
0.662500
0.562500
0.575000
0.425000
1.254167
0.508333
0.650000
0.500000
0.458333
0.525000
0.583333
0.575000
0.387500
0.504167
0.375000
0.395833
0.625000
0.354167
0.629167
0.383333
0.395833
0.591667
0.604167
0.495833
0.525000
0.508333
0.487500
0.612500
0.466667
0.583333
1.216667
0.587500
1.183333
0.358333
0.579167
0.666667
0.583333
0.666667
0.520833
0.391667
0.491667
0.704167
0.337500
0.616667
0.566667
0.675000
0.641667
0.462500
0.566667
1.354167
0.400000
0.520833
0.662500
0.408333
0.604167
0.383333
0.445833
0.537500
0.675000
0.387500
0.329167
0.566667
0.566667
0.491667
0.575000
0.575000
0.641667
0.362500
0.425000
0.579167
0.570833
1.158333
0.554167
0.491667
0.495833
0.591667
0.604167
0.395833
0.458333
0.566667
0.458333
0.533333
0.587500
0.662500
0.500000
0.404167
0.341667
0.391667
0.504167
0.595833
1.058333
0.545833
0.591667
0.404167
0.645833
0.420833
0.495833
0.383333
0.516667
0.487500
0.554167
0.525000
0.445833
0.487500
0.533333
1.212500
0.562500
1.083333
0.525000
0.645833
0.587500
0.554167
0.366667
0.479167
0.383333
0.604167
0.650000
0.587500
0.566667
0.516667
0.537500
0.404167
0.591667
0.658333
0.645833
0.579167
0.633333
0.545833
0.566667
0.654167
0.529167
0.433333
0.575000
0.470833
0.416667
0.450000
0.504167
0.508333
0.570833
0.400000
0.475000
0.412500
0.612500
1.033333
0.520833
0.541667
0.575000
0.579167
0.641667
0.566667
0.437500
0.608333
0.366667
0.345833
0.454167
0.437500
0.566667
1.204167
1.133333
1.091667
0.570833
0.575000
0.412500
0.591667
0.508333
0.429167
0.612500
0.425000
0.641667
0.420833
0.604167
0.441667
0.420833
0.387500
0.570833
0.604167
0.379167
0.558333
0.595833
0.533333
0.620833
0.491667
0.375000
0.612500
0.400000
0.445833
0.425000
0.666667
1.070833
0.495833
0.491667
0.400000
0.587500
0.525000
0.420833
0.637500
0.333333
0.466667
0.429167
0.637500
0.400000
0.587500
0.604167
0.487500
0.466667
0.645833
0.420833
0.554167
0.625000
0.354167
0.529167
0.362500
0.479167
0.595833
0.620833
1.070833
0.383333
0.508333
0.991667
0.575000
0.395833
0.625000
0.500000
0.533333
0.620833
0.383333
0.379167
0.545833
0.333333
0.516667
1.104167
0.425000
0.508333
0.487500
1.158333
0.404167
0.545833
0.658333
0.554167
0.383333
0.529167
0.587500
0.579167
0.375000
0.604167
0.387500
0.454167
0.458333
0.504167
0.525000
0.591667
0.400000
0.466667
0.654167
0.379167
0.541667
0.466667
0.662500
0.454167
0.520833
0.562500
0.512500
0.475000
0.529167
0.579167
0.591667
0.404167
0.620833
0.616667
0.404167
0.562500
1.154167
0.662500
0.616667
0.425000
0.354167
0.520833
0.633333
0.454167
0.479167
0.366667
0.587500
0.558333
0.533333
0.412500
0.595833
0.583333
0.416667
0.662500
0.354167
0.387500
1.158333
0.458333
0.687500
0.458333
0.370833
0.566667
0.583333
0.579167
0.450000
0.600000
0.458333
0.625000
0.429167
0.387500
0.629167
0.416667
0.583333
0.620833
0.395833
0.700000
1.016667
0.504167
0.462500
0.620833
0.525000
0.412500
0.516667
0.462500
0.400000
0.595833
0.445833
0.670833
0.491667
0.579167
0.458333
0.525000
0.479167
0.516667
0.412500
0.554167
0.554167
0.650000
1.158333
1.162500
0.500000
0.825000
0.475000
0.441667
0.512500
0.520833
0.354167
0.583333
0.554167
0.362500
0.529167
0.608333
0.387500
0.554167
0.587500
0.633333
1.179167
1.212500
0.454167
0.670833
0.341667
0.520833
0.562500
0.479167
0.450000
0.516667
0.483333
0.387500
0.400000
0.425000
0.466667
0.579167
0.445833
0.508333
0.508333
0.570833
0.566667
0.441667
0.412500
0.587500
0.329167
0.541667
0.504167
0.462500
0.408333
0.600000
0.570833
0.604167
0.491667
0.370833
0.579167
0.591667
0.483333
0.400000
0.429167
0.550000
0.391667
0.662500
1.041667
1.179167
0.437500
0.600000
0.554167
0.525000
0.562500
0.400000
0.641667
0.591667
0.400000
0.458333
0.475000
0.470833
0.520833
0.429167
0.395833
0.600000
0.604167
0.495833
0.608333
0.366667
1.254167
0.537500
0.462500
0.408333
0.508333
0.550000
0.425000
0.604167
0.391667
0.562500
0.558333
0.650000
0.358333
0.412500
0.541667
0.437500
0.554167
0.666667
0.483333
0.566667
0.645833
0.566667
0.550000
0.508333
0.679167
0.645833
