0.745833
0.958333
1.162500
0.945833
0.895833
0.916667
0.879167
0.845833
0.845833
0.825000
0.754167
0.708333
1.212500
0.787500
0.720833
1.262500
0.762500
0.712500
1.233333
0.775000
0.720833
0.729167
1.225000
0.779167
0.720833
0.729167
1.229167
0.779167
0.720833
0.762500
0.720833
0.737500
1.225000
1.437500
1.395833
1.395833
1.408333
1.416667
0.770833
0.725000
0.895833
1.775000
0.941667
0.937500
0.887500
0.912500
0.887500
0.879167
0.862500
0.866667
0.870833
0.854167
0.858333
0.850000
0.854167
0.854167
0.854167
0.858333
0.854167
0.858333
0.858333
0.858333
0.845833
0.875000
0.854167
0.875000
0.862500
0.887500
0.862500
0.904167
0.729167
0.779167
0.454167
0.408333
0.604167
0.566667
0.441667
0.354167
0.304167
0.312500
0.362500
0.362500
0.504167
0.370833
0.304167
0.325000
0.320833
0.333333
0.316667
0.416667
0.395833
0.345833
0.320833
0.320833
0.329167
0.316667
0.329167
0.337500
0.333333
0.345833
0.358333
0.350000
0.358333
0.337500
0.325000
0.325000
0.304167
0.308333
0.354167
0.462500
0.345833
0.312500
0.366667
0.337500
0.329167
0.408333
0.341667
0.325000
0.383333
0.370833
0.366667
0.341667
0.325000
0.387500
0.408333
0.395833
0.366667
0.379167
0.345833
0.341667
0.329167
0.312500
0.333333
0.337500
0.341667
0.337500
0.329167
0.333333
0.350000
0.337500
0.337500
0.466667
0.345833
0.320833
0.341667
0.333333
0.341667
0.566667
0.408333
0.354167
0.333333
0.479167
0.416667
0.375000
0.370833
0.425000
0.375000
0.383333
0.383333
0.341667
0.341667
0.387500
0.341667
0.379167
0.375000
0.337500
0.366667
0.350000
0.320833
0.325000
0.366667
0.437500
0.329167
0.345833
0.325000
0.329167
0.433333
0.358333
0.320833
0.329167
0.362500
0.341667
0.370833
0.354167
0.329167
0.333333
0.350000
0.420833
0.358333
0.358333
0.370833
0.345833
0.325000
0.325000
0.320833
0.333333
0.329167
0.345833
0.366667
0.358333
0.329167
0.333333
0.329167
0.333333
0.337500
0.333333
0.337500
0.337500
0.341667
0.333333
0.354167
0.358333
0.333333
0.345833
0.341667
0.362500
0.350000
0.358333
0.358333
0.345833
0.345833
0.329167
0.358333
0.383333
0.412500
0.366667
0.350000
0.333333
0.345833
0.333333
0.308333
0.329167
0.350000
0.337500
0.383333
0.404167
0.383333
0.345833
0.304167
0.325000
0.416667
0.362500
0.379167
0.375000
0.358333
0.375000
0.316667
0.291667
0.308333
0.391667
0.333333
0.345833
0.345833
0.383333
0.362500
0.337500
0.345833
0.350000
0.350000
0.333333
0.350000
0.341667
0.358333
0.370833
0.341667
0.350000
0.350000
0.366667
0.341667
0.337500
0.345833
0.333333
0.337500
0.333333
0.320833
0.325000
0.387500
0.366667
0.341667
0.362500
0.358333
0.358333
0.341667
0.333333
0.345833
0.329167
0.375000
0.366667
0.337500
0.337500
0.329167
0.345833
0.337500
0.341667
0.370833
0.350000
0.387500
0.375000
0.333333
0.362500
0.312500
0.291667
0.329167
0.354167
0.325000
0.341667
0.320833
0.350000
0.379167
0.445833
0.329167
0.287500
0.350000
0.345833
0.325000
0.362500
0.333333
0.345833
0.345833
0.400000
0.358333
0.350000
0.404167
0.358333
0.329167
0.362500
0.345833
0.383333
0.370833
0.341667
0.379167
0.387500
0.337500
0.366667
0.400000
0.441667
0.387500
0.362500
0.320833
0.320833
0.320833
0.320833
0.345833
0.329167
0.370833
0.350000
0.341667
0.333333
0.320833
0.362500
0.500000
0.437500
0.370833
0.329167
0.358333
0.379167
0.337500
0.379167
0.433333
0.358333
0.337500
0.383333
0.379167
0.341667
0.358333
0.350000
0.341667
0.354167
0.316667
0.354167
0.341667
0.341667
0.325000
0.329167
0.354167
0.366667
0.329167
0.329167
0.408333
0.366667
0.333333
0.341667
0.341667
0.366667
0.366667
0.337500
0.312500
0.325000
0.320833
0.325000
0.354167
0.358333
0.345833
0.362500
0.408333
0.341667
0.337500
0.329167
0.341667
0.341667
0.333333
0.325000
0.325000
0.345833
0.329167
0.379167
0.345833
0.358333
0.366667
0.358333
0.333333
0.541667
0.370833
0.345833
0.345833
0.341667
0.350000
0.400000
0.350000
0.320833
1.412500
1.312500
1.320833
0.850000
0.829167
1.241667
1.054167
0.912500
0.975000
0.912500
0.895833
0.866667
0.820833
0.816667
0.779167
0.733333
1.250000
0.891667
0.841667
0.812500
0.758333
0.729167
1.237500
0.787500
0.729167
1.270833
0.766667
0.720833
1.258333
0.766667
0.729167
1.229167
0.762500
0.733333
0.750000
1.233333
1.420833
1.387500
1.391667
0.920833
0.750000
1.254167
0.916667
0.920833
0.891667
0.908333
0.733333
0.775000
0.812500
1.387500
0.779167
0.420833
0.429167
0.370833
0.362500
1.308333
0.737500
0.720833
0.654167
0.604167
0.612500
0.379167
0.345833
0.320833
0.320833
0.316667
0.287500
0.279167
0.325000
0.308333
0.287500
0.312500
0.316667
0.316667
0.350000
0.333333
0.362500
0.354167
0.329167
0.337500
0.341667
0.320833
0.350000
0.366667
0.329167
0.341667
0.345833
0.333333
0.341667
0.316667
0.333333
0.345833
0.354167
0.425000
0.379167
0.333333
0.395833
0.341667
0.312500
0.337500
0.329167
0.325000
0.633333
0.441667
1.062500
0.412500
0.354167
0.345833
0.300000
0.295833
0.325000
0.341667
0.354167
0.320833
0.416667
0.379167
0.341667
0.354167
0.354167
0.379167
0.404167
0.354167
0.362500
0.341667
0.354167
0.345833
0.325000
0.358333
0.362500
0.333333
1.379167
0.416667
0.366667
0.370833
1.245833
0.766667
1.041667
0.891667
0.854167
0.833333
0.791667
0.762500
1.287500
0.850000
0.450000
0.550000
0.570833
0.408333
0.345833
0.341667
0.370833
0.345833
0.341667
0.350000
0.333333
0.325000
0.325000
0.345833
0.329167
0.341667
0.350000
0.345833
0.341667
0.366667
0.379167
0.345833
0.375000
0.391667
0.420833
0.341667
0.304167
0.308333
0.308333
0.325000
0.316667
0.308333
0.320833
0.458333
0.350000
0.316667
0.337500
0.554167
0.395833
0.345833
0.366667
0.395833
0.354167
0.383333
1.758333
0.433333
0.341667
0.366667
0.354167
0.325000
0.425000
0.341667
0.304167
0.329167
0.350000
1.670833
0.445833
0.337500
0.358333
0.537500
0.370833
0.312500
0.325000
0.366667
0.329167
0.350000
0.337500
0.320833
0.366667
0.337500
0.375000
0.341667
0.320833
0.329167
0.337500
0.387500
0.354167
0.345833
0.425000
0.350000
0.337500
0.337500
0.337500
0.345833
0.333333
0.333333
0.379167
0.354167
0.337500
0.325000
0.320833
0.329167
0.329167
0.325000
0.345833
0.329167
0.370833
0.350000
0.325000
0.325000
0.333333
0.316667
0.320833
0.354167
0.354167
0.362500
0.370833
0.345833
0.366667
0.333333
0.395833
0.487500
0.333333
0.337500
0.325000
0.358333
0.358333
0.341667
0.345833
0.416667
0.475000
0.545833
0.425000
0.370833
0.354167
0.391667
0.345833
0.350000
0.320833
0.283333
0.316667
0.337500
0.333333
0.345833
0.362500
0.366667
0.433333
0.433333
0.370833
0.337500
0.362500
0.341667
0.416667
0.387500
0.333333
0.354167
0.366667
0.404167
0.470833
0.616667
0.429167
0.470833
0.366667
0.337500
0.366667
0.420833
0.408333
0.325000
0.350000
0.416667
0.341667
0.329167
0.337500
0.341667
0.429167
0.537500
0.358333
0.366667
0.383333
0.333333
0.333333
0.375000
0.495833
0.341667
0.329167
0.362500
0.341667
0.345833
0.358333
0.350000
0.458333
0.470833
0.400000
0.345833
0.420833
0.350000
0.462500
0.516667
0.495833
0.345833
0.366667
0.333333
0.379167
0.425000
1.391667
0.454167
1.450000
0.445833
1.241667
0.429167
1.262500
0.437500
1.258333
1.679167
1.687500
1.687500
1.675000
1.750000
1.612500
1.733333
0.779167
0.812500
0.816667
0.745833
1.300000
0.779167
0.462500
0.516667
0.604167
0.625000
0.700000
1.820833
0.745833
0.891667
0.754167
0.545833
1.454167
0.775000
0.629167
0.625000
0.637500
0.662500
0.712500
0.733333
0.679167
0.675000
0.691667
0.683333
0.691667
0.437500
0.608333
1.508333
0.787500
0.895833
0.670833
0.587500
0.658333
0.712500
0.408333
0.350000
1.308333
0.437500
1.162500
0.762500
1.358333
0.850000
1.354167
0.762500
0.854167
0.770833
0.708333
0.654167
0.675000
1.204167
1.141667
0.729167
0.629167
0.579167
0.670833
0.645833
0.645833
0.675000
0.633333
0.670833
0.737500
0.708333
0.666667
0.658333
0.525000
0.516667
0.520833
0.454167
0.495833
0.483333
0.470833
0.487500
0.470833
0.479167
0.483333
0.475000
0.479167
0.487500
0.475000
0.475000
0.479167
0.479167
0.479167
0.479167
0.479167
0.470833
0.479167
0.487500
0.479167
0.475000
0.475000
0.470833
0.483333
0.483333
0.462500
0.475000
0.483333
0.466667
0.483333
0.470833
0.475000
0.475000
0.466667
0.470833
0.479167
0.475000
0.470833
0.470833
0.466667
0.470833
0.475000
0.470833
0.479167
0.466667
0.470833
0.475000
0.466667
0.475000
0.475000
0.466667
0.479167
0.462500
0.466667
0.475000
0.470833
0.475000
0.470833
0.466667
0.470833
0.462500
0.466667
0.475000
0.470833
0.466667
0.475000
0.458333
0.466667
0.475000
0.466667
0.470833
0.475000
0.458333
0.466667
0.475000
0.462500
0.470833
0.470833
0.454167
0.470833
0.470833
0.466667
0.475000
0.462500
0.462500
0.466667
0.462500
0.470833
0.470833
0.462500
0.466667
0.462500
0.462500
0.466667
0.466667
0.470833
0.462500
0.462500
0.462500
0.458333
0.462500
0.470833
0.462500
0.462500
0.466667
0.458333
0.458333
0.466667
0.462500
0.466667
0.462500
0.458333
0.462500
0.454167
0.466667
0.466667
0.462500
0.462500
0.458333
0.458333
0.462500
0.462500
0.466667
0.458333
0.466667
0.454167
0.462500
0.462500
0.462500
0.466667
0.462500
0.458333
0.458333
0.458333
0.466667
0.462500
0.458333
0.458333
0.458333
0.454167
0.462500
0.462500
0.458333
0.462500
0.454167
0.458333
0.458333
0.458333
0.466667
0.458333
0.454167
0.458333
0.454167
0.458333
0.420833
0.454167
0.454167
0.462500
0.450000
0.454167
0.462500
0.454167
0.462500
0.450000
0.458333
0.454167
0.450000
0.458333
0.458333
0.458333
0.450000
0.458333
0.450000
0.454167
0.454167
0.458333
0.458333
0.450000
0.454167
0.454167
0.445833
0.458333
0.454167
0.458333
0.450000
0.450000
0.450000
0.458333
0.454167
0.454167
0.454167
0.450000
0.450000
0.458333
0.450000
0.458333
0.454167
0.450000
0.450000
0.450000
0.458333
0.462500
0.441667
0.458333
0.450000
0.445833
0.466667
0.454167
0.441667
0.458333
0.445833
0.458333
0.466667
0.445833
0.458333
0.441667
0.458333
0.466667
0.437500
0.454167
0.458333
0.445833
0.458333
0.445833
0.450000
0.454167
0.450000
0.454167
0.450000
0.450000
0.450000
0.445833
0.462500
0.454167
0.441667
0.458333
0.445833
0.454167
0.462500
0.445833
0.450000
0.458333
0.437500
0.462500
0.458333
0.441667
0.458333
0.445833
0.445833
0.462500
0.445833
0.450000
0.458333
0.450000
0.470833
0.470833
0.454167
0.458333
0.450000
0.470833
0.458333
0.458333
0.458333
0.441667
0.450000
0.450000
0.437500
0.454167
0.450000
0.445833
0.454167
0.450000
0.441667
0.454167
0.441667
0.450000
0.458333
0.450000
0.445833
0.454167
0.441667
0.450000
0.454167
0.445833
0.458333
0.454167
0.470833
0.475000
0.445833
0.454167
0.441667
0.450000
0.450000
0.441667
0.445833
0.454167
0.445833
0.450000
0.450000
0.441667
0.450000
0.458333
0.466667
0.470833
0.454167
0.462500
0.462500
0.454167
0.462500
0.462500
0.462500
0.462500
0.454167
0.458333
0.462500
0.458333
0.462500
0.462500
0.454167
0.458333
0.458333
0.458333
0.462500
0.462500
0.458333
0.454167
0.454167
0.462500
0.458333
0.462500
0.458333
0.454167
0.454167
0.462500
0.458333
0.458333
0.462500
0.458333
0.445833
0.458333
0.462500
0.454167
0.466667
0.454167
0.454167
0.458333
0.458333
0.454167
0.466667
0.450000
0.458333
0.462500
0.454167
0.450000
0.466667
0.458333
0.458333
0.470833
0.445833
0.450000
0.466667
0.450000
0.441667
0.454167
0.450000
0.466667
0.475000
0.429167
0.437500
0.458333
0.450000
0.475000
0.462500
0.433333
0.454167
0.462500
0.454167
0.454167
0.475000
0.445833
0.450000
0.475000
0.441667
0.437500
0.458333
0.454167
0.470833
0.462500
0.433333
0.454167
0.466667
0.458333
0.454167
0.466667
0.445833
0.450000
0.470833
0.445833
0.454167
0.475000
0.441667
0.445833
0.470833
0.454167
0.450000
0.470833
0.450000
0.441667
0.466667
0.458333
0.445833
0.466667
0.462500
0.433333
0.450000
0.470833
0.450000
