0.554167
0.558333
0.554167
0.562500
0.558333
0.554167
0.550000
0.554167
0.558333
0.558333
0.550000
0.554167
0.550000
0.554167
0.558333
0.554167
0.554167
0.550000
0.550000
0.558333
0.554167
0.550000
0.550000
0.550000
0.554167
0.558333
0.550000
0.550000
0.550000
0.554167
0.562500
0.554167
0.554167
0.554167
0.562500
0.562500
0.575000
0.566667
0.566667
0.566667
0.570833
0.575000
0.583333
0.579167
0.587500
0.466667
0.691667
0.575000
0.579167
0.587500
0.579167
0.570833
0.575000
0.579167
0.587500
0.579167
0.570833
0.575000
0.583333
0.583333
0.575000
0.575000
0.575000
0.583333
0.570833
0.570833
0.570833
0.579167
0.570833
0.566667
0.566667
0.570833
0.566667
0.562500
0.562500
0.608333
0.512500
0.558333
0.233333
0.887500
0.541667
0.308333
0.300000
0.516667
0.608333
0.504167
0.550000
0.554167
0.554167
0.554167
0.554167
0.241667
0.316667
0.558333
0.558333
0.566667
0.241667
0.333333
0.566667
0.570833
0.579167
0.579167
0.579167
0.579167
0.575000
0.579167
0.583333
0.595833
0.587500
0.445833
0.741667
0.595833
0.595833
0.595833
0.595833
0.608333
0.600000
0.433333
0.716667
0.616667
0.591667
0.583333
0.583333
0.587500
0.579167
0.570833
0.570833
0.570833
0.570833
0.570833
0.558333
0.562500
0.562500
0.566667
0.558333
0.558333
0.554167
0.558333
0.562500
0.558333
0.554167
0.554167
0.554167
0.562500
0.554167
0.554167
0.550000
0.554167
0.558333
0.554167
0.550000
0.550000
0.554167
0.558333
0.554167
0.550000
0.550000
0.550000
0.558333
0.550000
0.550000
0.545833
0.554167
0.550000
0.554167
0.550000
0.550000
0.550000
0.554167
0.554167
0.550000
0.554167
0.545833
0.554167
0.554167
0.554167
0.550000
0.554167
0.550000
0.554167
0.558333
0.550000
0.550000
0.554167
0.550000
0.554167
0.554167
0.550000
0.550000
0.550000
0.550000
0.550000
0.558333
0.545833
0.550000
0.545833
0.550000
0.550000
0.554167
0.550000
0.545833
0.545833
0.550000
0.554167
0.554167
0.550000
0.545833
0.545833
0.550000
0.554167
0.554167
0.550000
0.550000
0.545833
0.554167
0.550000
0.554167
0.554167
0.504167
0.600000
0.550000
0.554167
0.550000
0.554167
0.554167
0.554167
0.554167
0.558333
0.554167
0.558333
0.554167
0.616667
0.508333
0.558333
0.562500
0.562500
0.566667
0.566667
0.558333
0.558333
0.562500
0.558333
0.566667
0.566667
0.558333
0.558333
0.558333
0.562500
0.566667
0.554167
0.558333
0.554167
0.558333
0.562500
0.554167
0.554167
0.554167
0.554167
0.562500
0.558333
0.550000
0.554167
0.554167
0.554167
0.558333
0.554167
0.283333
0.262500
0.550000
0.554167
0.558333
0.550000
0.550000
0.550000
0.550000
0.558333
0.545833
0.550000
0.554167
0.550000
0.554167
0.554167
0.554167
0.550000
0.554167
0.662500
0.408333
0.416667
0.725000
0.554167
0.554167
0.554167
0.554167
0.562500
0.554167
0.558333
0.554167
0.558333
0.554167
0.558333
0.558333
0.558333
0.562500
0.558333
0.554167
0.562500
0.562500
0.562500
0.554167
0.558333
0.558333
0.566667
0.558333
0.554167
0.554167
0.558333
0.558333
0.562500
0.558333
0.554167
0.558333
0.558333
0.562500
0.554167
0.554167
0.558333
0.554167
0.562500
0.554167
0.554167
0.554167
0.558333
0.558333
0.554167
0.554167
0.550000
0.554167
0.558333
0.554167
0.420833
0.766667
0.441667
0.220833
0.337500
0.558333
0.550000
0.554167
0.550000
0.554167
0.554167
0.554167
0.554167
0.558333
0.558333
0.554167
0.554167
0.554167
0.250000
0.862500
0.558333
0.554167
0.554167
0.558333
0.554167
0.562500
0.558333
0.558333
0.554167
0.562500
0.562500
0.562500
0.558333
0.487500
0.625000
0.562500
0.566667
0.554167
0.558333
0.554167
0.558333
0.562500
0.233333
0.320833
0.558333
0.554167
0.554167
0.662500
0.383333
0.291667
0.333333
0.558333
0.554167
0.558333
0.558333
0.558333
0.562500
0.566667
0.558333
0.558333
0.562500
0.562500
0.562500
0.558333
0.562500
0.558333
0.562500
0.566667
0.558333
0.562500
0.562500
0.562500
0.566667
0.570833
0.562500
0.566667
0.570833
0.216667
0.358333
0.562500
0.566667
0.566667
0.575000
0.566667
0.566667
0.566667
0.566667
0.575000
0.570833
0.570833
0.566667
0.566667
0.570833
0.570833
0.566667
0.562500
0.562500
0.566667
0.570833
0.562500
0.562500
0.558333
0.562500
0.562500
0.566667
0.558333
0.562500
0.558333
0.558333
0.562500
0.566667
0.554167
0.558333
0.554167
0.562500
0.562500
0.558333
0.558333
0.554167
0.554167
0.562500
0.558333
0.558333
0.554167
0.554167
0.554167
0.562500
0.554167
0.550000
0.554167
0.550000
0.558333
0.554167
0.550000
0.554167
0.554167
0.550000
0.545833
0.566667
0.554167
0.554167
0.550000
0.554167
0.558333
0.554167
0.554167
0.558333
0.366667
0.754167
0.558333
0.554167
0.262500
0.295833
0.558333
0.558333
0.412500
0.658333
0.579167
0.562500
0.562500
0.562500
0.562500
0.316667
0.245833
0.562500
0.562500
0.562500
0.566667
0.566667
0.416667
0.650000
0.583333
0.570833
0.566667
0.575000
0.566667
0.562500
0.566667
0.566667
0.570833
0.570833
0.433333
0.695833
0.562500
0.570833
0.566667
0.562500
0.562500
0.558333
0.562500
0.570833
0.566667
0.562500
0.558333
0.562500
0.566667
0.562500
0.558333
0.558333
0.562500
0.558333
0.566667
0.558333
0.558333
0.558333
0.554167
0.566667
0.558333
0.554167
0.554167
0.558333
0.558333
0.558333
0.558333
0.554167
0.550000
0.558333
0.558333
0.558333
0.554167
0.554167
0.554167
0.558333
0.558333
0.554167
0.554167
0.554167
0.550000
0.416667
0.650000
0.575000
0.550000
0.550000
0.412500
0.645833
0.575000
0.554167
0.550000
0.550000
0.554167
0.558333
0.554167
0.554167
0.550000
0.554167
0.554167
0.554167
0.554167
0.558333
0.554167
0.554167
0.554167
0.558333
0.554167
0.562500
0.554167
0.558333
0.558333
0.554167
0.562500
0.558333
0.562500
0.558333
0.558333
0.825000
0.291667
0.566667
0.558333
0.562500
0.558333
0.562500
0.566667
0.570833
0.562500
0.562500
0.558333
0.558333
0.562500
0.566667
0.562500
0.554167
0.558333
0.558333
0.566667
0.558333
0.558333
0.554167
0.558333
0.562500
0.558333
0.495833
0.616667
0.554167
0.558333
0.562500
0.558333
0.554167
0.554167
0.554167
0.558333
0.562500
0.558333
0.554167
0.550000
0.554167
0.562500
0.554167
0.558333
0.550000
0.412500
0.645833
0.575000
0.558333
0.554167
0.554167
0.558333
0.554167
0.408333
0.650000
0.579167
0.558333
0.558333
0.558333
0.558333
0.558333
0.562500
0.566667
0.558333
0.554167
0.558333
0.558333
0.566667
0.416667
0.645833
0.575000
0.566667
0.570833
0.558333
0.558333
0.554167
0.558333
0.562500
0.566667
0.558333
0.554167
0.554167
0.416667
0.658333
0.579167
0.558333
0.412500
0.645833
0.579167
0.566667
0.558333
0.558333
0.554167
0.558333
0.558333
0.562500
0.554167
0.554167
0.566667
0.545833
0.558333
0.558333
0.550000
0.554167
0.554167
0.558333
0.554167
0.554167
0.554167
0.554167
0.554167
0.558333
0.554167
0.562500
0.554167
0.558333
0.554167
0.558333
0.562500
0.558333
0.562500
0.558333
0.558333
0.562500
0.554167
0.420833
0.716667
0.558333
0.566667
0.566667
0.562500
0.558333
0.558333
0.562500
0.566667
0.562500
0.558333
0.558333
0.562500
0.562500
0.562500
0.558333
0.558333
0.554167
0.562500
0.558333
0.566667
0.554167
0.558333
0.554167
0.558333
0.566667
0.675000
0.441667
0.554167
0.558333
0.558333
0.562500
0.554167
0.554167
0.554167
0.558333
0.562500
0.554167
0.416667
0.641667
0.570833
0.562500
0.562500
0.554167
0.554167
0.554167
0.554167
0.562500
0.475000
0.625000
0.554167
0.512500
0.595833
0.554167
0.558333
0.554167
0.562500
0.554167
0.554167
0.554167
0.558333
0.562500
0.554167
0.558333
0.554167
0.554167
0.558333
0.558333
0.566667
0.554167
0.558333
0.558333
0.562500
0.562500
0.558333
0.562500
0.562500
0.566667
0.562500
0.558333
0.558333
0.562500
0.566667
0.562500
0.554167
0.558333
0.562500
0.558333
0.566667
0.558333
0.441667
0.637500
0.570833
0.562500
0.566667
0.554167
0.554167
0.550000
0.416667
0.650000
0.575000
0.558333
0.550000
0.554167
0.554167
0.558333
0.562500
0.550000
0.550000
0.554167
0.554167
0.558333
0.558333
0.550000
0.550000
0.554167
0.408333
0.650000
0.575000
0.550000
0.550000
0.554167
0.554167
0.558333
0.550000
0.550000
0.554167
0.550000
0.554167
0.554167
0.562500
0.550000
0.554167
0.554167
0.554167
0.554167
0.558333
0.554167
0.554167
0.554167
0.554167
0.554167
0.554167
0.558333
0.554167
0.554167
0.550000
0.558333
0.558333
0.554167
0.550000
0.554167
0.558333
0.562500
0.558333
0.554167
0.558333
0.558333
0.566667
0.562500
0.550000
0.558333
0.558333
0.562500
0.558333
0.554167
0.558333
0.554167
0.558333
0.562500
0.554167
0.554167
0.554167
0.554167
0.562500
0.554167
0.550000
0.550000
0.558333
0.558333
0.554167
0.550000
0.554167
0.550000
0.558333
0.558333
0.550000
0.550000
0.558333
0.550000
0.566667
1.104167
0.554167
0.550000
0.558333
0.562500
0.550000
0.550000
0.554167
0.550000
0.554167
0.558333
0.554167
0.545833
0.550000
0.550000
0.554167
0.554167
0.550000
0.545833
0.550000
0.550000
0.554167
0.208333
0.891667
0.558333
0.550000
0.550000
0.550000
0.554167
0.241667
0.312500
0.558333
0.550000
0.554167
0.554167
0.554167
0.220833
0.333333
0.554167
0.558333
0.562500
0.554167
0.558333
0.416667
0.141667
0.404167
0.645833
0.458333
0.387500
0.537500
0.241667
0.345833
0.612500
0.575000
0.300000
0.833333
0.570833
0.566667
0.558333
0.558333
0.562500
0.562500
0.566667
0.562500
0.558333
0.408333
0.654167
0.583333
0.570833
0.562500
0.554167
0.558333
0.558333
0.562500
0.562500
0.558333
0.554167
0.558333
0.554167
0.562500
0.562500
0.558333
0.554167
0.437500
0.645833
0.575000
0.562500
0.554167
0.554167
0.554167
0.554167
0.554167
0.554167
0.554167
0.554167
0.408333
0.545833
0.458333
0.687500
0.575000
0.558333
0.558333
0.554167
0.558333
0.712500
0.850000
0.625000
1.116667
0.395833
0.583333
0.637500
0.575000
0.558333
0.562500
0.566667
0.554167
0.554167
0.554167
0.558333
0.562500
0.558333
0.558333
0.558333
0.558333
0.554167
0.416667
0.641667
0.579167
0.500000
0.458333
0.395833
0.329167
0.562500
0.554167
0.554167
0.554167
0.558333
0.558333
0.562500
0.554167
0.554167
0.558333
0.558333
0.558333
0.562500
0.566667
0.558333
0.558333
0.558333
0.570833
0.679167
0.437500
0.387500
0.729167
0.562500
0.275000
0.420833
0.441667
0.533333
0.562500
0.562500
0.558333
0.558333
0.554167
0.558333
0.558333
0.562500
0.554167
0.554167
0.412500
0.650000
0.579167
0.562500
0.554167
0.558333
0.550000
0.558333
0.562500
0.562500
0.554167
0.554167
0.554167
0.416667
0.245833
0.550000
0.429167
0.558333
0.625000
0.491667
0.554167
0.416667
0.641667
0.579167
0.558333
0.412500
0.654167
0.579167
0.550000
0.562500
0.558333
0.558333
0.558333
0.562500
0.412500
0.645833
0.575000
0.562500
0.562500
0.562500
0.558333
0.558333
0.558333
0.416667
0.225000
