0.562500
0.566667
0.554167
0.558333
0.554167
0.562500
0.558333
0.554167
0.554167
0.558333
0.558333
0.550000
0.554167
0.550000
0.558333
0.558333
0.550000
0.550000
0.554167
0.558333
0.600000
0.500000
0.554167
0.554167
0.554167
0.558333
0.550000
0.550000
0.554167
0.558333
0.550000
0.554167
0.545833
0.558333
0.725000
0.379167
0.495833
0.608333
0.479167
0.625000
0.545833
0.554167
0.554167
0.550000
0.545833
0.550000
0.550000
0.558333
0.550000
0.545833
0.554167
0.554167
0.554167
0.550000
0.550000
0.554167
0.554167
0.716667
0.383333
0.229167
0.333333
0.558333
0.554167
0.554167
0.550000
0.554167
0.554167
0.554167
0.558333
0.558333
0.554167
0.554167
0.554167
0.554167
0.562500
0.558333
0.554167
0.554167
0.554167
0.554167
0.558333
0.558333
0.558333
0.645833
0.270833
0.200000
0.558333
0.558333
0.558333
0.562500
0.562500
0.558333
0.558333
0.562500
0.562500
0.562500
0.558333
0.558333
0.562500
0.562500
0.558333
0.558333
0.562500
0.562500
0.562500
0.558333
0.554167
0.562500
0.562500
0.558333
0.554167
0.558333
0.558333
0.562500
0.554167
0.554167
0.554167
0.558333
0.562500
0.550000
0.558333
0.554167
0.558333
0.562500
0.550000
0.554167
0.558333
0.558333
0.562500
0.554167
0.554167
0.558333
0.558333
0.558333
0.558333
0.558333
0.558333
0.566667
0.558333
0.558333
0.558333
0.562500
0.566667
0.558333
0.558333
0.558333
0.562500
0.566667
0.558333
0.558333
0.558333
0.566667
0.566667
0.558333
0.562500
0.558333
0.562500
0.566667
0.566667
0.558333
0.558333
0.566667
0.566667
0.562500
0.562500
0.558333
0.566667
0.566667
0.562500
0.562500
0.558333
0.562500
0.562500
0.566667
0.558333
0.562500
0.558333
0.570833
0.558333
0.337500
0.779167
0.558333
0.562500
0.566667
0.558333
0.554167
0.562500
0.558333
0.566667
0.558333
0.558333
0.554167
0.562500
0.562500
0.566667
0.554167
0.566667
0.570833
0.570833
0.579167
0.570833
0.570833
0.570833
0.570833
0.575000
0.570833
0.566667
0.566667
0.566667
0.570833
0.570833
0.566667
0.562500
0.566667
0.570833
0.570833
0.566667
0.562500
0.566667
0.570833
0.570833
0.566667
0.562500
0.570833
0.566667
0.570833
0.562500
0.562500
0.562500
0.566667
0.566667
0.562500
0.558333
0.562500
0.562500
0.566667
0.562500
0.558333
0.558333
0.562500
0.562500
0.570833
0.562500
0.558333
0.558333
0.562500
0.566667
0.558333
0.558333
0.562500
0.558333
0.391667
0.345833
0.391667
0.620833
0.516667
0.570833
0.570833
0.575000
0.575000
0.566667
0.566667
0.566667
0.570833
0.575000
0.562500
0.562500
0.566667
0.570833
0.566667
0.562500
0.562500
0.566667
0.570833
0.562500
0.562500
0.300000
0.258333
0.566667
0.220833
0.345833
0.362500
0.295833
0.458333
0.270833
0.375000
0.504167
0.645833
0.333333
0.620833
0.462500
0.454167
0.491667
0.408333
0.250000
0.870833
1.129167
0.562500
1.116667
1.133333
0.562500
0.558333
0.562500
1.137500
0.558333
0.554167
0.558333
0.570833
0.562500
0.558333
0.558333
0.558333
0.562500
0.562500
0.558333
0.558333
0.562500
0.562500
0.554167
0.558333
0.562500
0.562500
0.558333
0.562500
0.554167
0.558333
0.566667
0.562500
0.550000
0.558333
0.558333
0.566667
0.554167
0.558333
0.558333
0.558333
0.562500
0.554167
0.558333
0.562500
0.562500
0.554167
0.562500
0.562500
0.562500
0.562500
0.558333
0.562500
0.566667
0.558333
0.562500
0.558333
0.566667
0.562500
0.554167
0.558333
0.562500
0.562500
0.558333
0.458333
0.658333
0.562500
0.562500
0.558333
0.558333
0.562500
0.562500
0.562500
0.550000
0.566667
0.625000
0.495833
0.454167
0.679167
0.725000
0.537500
0.670833
0.266667
0.366667
0.562500
0.279167
0.720833
0.383333
0.695833
0.387500
0.575000
0.216667
1.058333
0.195833
0.733333
0.504167
0.604167
1.091667
0.145833
0.212500
0.654167
0.233333
0.175000
0.645833
0.679167
0.520833
0.116667
0.354167
0.841667
0.666667
0.245833
0.554167
0.479167
0.608333
0.545833
0.550000
0.550000
0.541667
0.545833
0.545833
0.545833
0.554167
0.550000
0.545833
0.545833
0.545833
0.550000
0.554167
0.545833
0.545833
0.545833
0.550000
0.554167
0.545833
0.545833
0.545833
0.550000
0.550000
0.550000
0.541667
0.545833
0.550000
0.554167
0.550000
0.545833
0.545833
0.550000
0.550000
0.554167
0.545833
0.545833
0.550000
0.550000
0.554167
0.545833
0.545833
0.550000
0.550000
0.554167
0.545833
0.545833
0.550000
0.554167
0.545833
0.550000
0.545833
0.554167
0.545833
0.545833
0.545833
0.554167
0.550000
0.545833
0.550000
0.545833
0.554167
0.554167
0.545833
0.550000
0.550000
0.550000
0.558333
0.545833
0.550000
0.550000
0.554167
0.550000
0.550000
0.550000
0.554167
0.554167
0.554167
0.550000
0.550000
0.554167
0.550000
0.558333
0.550000
0.550000
0.554167
0.554167
0.550000
0.550000
0.554167
0.554167
0.558333
0.550000
0.550000
0.550000
0.554167
0.558333
0.550000
0.554167
0.550000
0.554167
0.550000
0.554167
0.558333
0.562500
0.558333
0.358333
0.758333
0.570833
0.566667
0.570833
0.633333
0.504167
0.558333
0.566667
0.566667
0.558333
0.558333
0.562500
0.562500
0.554167
0.554167
0.554167
0.558333
0.562500
0.558333
0.550000
0.550000
0.558333
0.558333
0.554167
0.550000
0.554167
0.554167
0.558333
0.550000
0.554167
0.550000
0.554167
0.558333
0.550000
0.550000
0.554167
0.550000
0.558333
0.550000
0.550000
0.545833
0.554167
0.554167
0.550000
0.550000
0.550000
0.550000
0.554167
0.550000
0.550000
0.550000
0.550000
0.554167
0.554167
0.550000
0.545833
0.550000
0.550000
0.558333
0.545833
0.550000
0.550000
0.550000
0.554167
0.554167
0.550000
0.545833
0.550000
0.550000
0.554167
0.550000
0.545833
0.550000
0.550000
0.554167
0.550000
0.545833
0.550000
0.550000
0.554167
0.554167
0.545833
0.550000
0.545833
0.554167
0.554167
0.554167
0.550000
0.550000
0.550000
0.558333
0.550000
0.550000
0.550000
0.554167
0.554167
0.554167
0.550000
0.550000
0.554167
0.554167
0.558333
0.550000
0.550000
0.550000
0.558333
0.554167
0.554167
0.670833
0.433333
0.558333
0.558333
0.550000
0.554167
0.550000
0.558333
0.558333
0.550000
0.550000
0.554167
0.554167
0.562500
0.545833
0.558333
0.554167
0.629167
0.483333
0.266667
0.287500
0.558333
0.566667
0.566667
0.558333
0.558333
0.562500
0.566667
0.558333
0.558333
0.558333
0.562500
0.566667
0.554167
0.558333
0.554167
0.562500
0.562500
0.558333
0.554167
0.558333
0.558333
0.562500
0.554167
0.554167
0.554167
0.558333
0.562500
0.554167
0.554167
0.554167
0.558333
0.562500
0.554167
0.554167
0.554167
0.558333
0.558333
0.554167
0.554167
0.554167
0.558333
0.558333
0.558333
0.554167
0.554167
0.558333
0.558333
0.562500
0.554167
0.554167
0.554167
0.558333
0.554167
0.554167
0.554167
0.554167
0.562500
0.558333
0.554167
0.554167
0.554167
0.562500
0.562500
0.562500
0.554167
0.270833
0.591667
0.250000
0.558333
0.554167
0.558333
0.554167
0.558333
0.562500
0.554167
0.554167
0.554167
0.558333
0.562500
0.558333
0.554167
0.554167
0.562500
0.562500
0.562500
0.558333
0.558333
0.562500
0.566667
0.554167
0.558333
0.558333
0.566667
0.554167
0.558333
0.558333
0.566667
0.558333
0.558333
0.554167
0.562500
0.562500
0.558333
0.554167
0.558333
0.558333
0.562500
0.554167
0.554167
0.554167
0.558333
0.558333
0.554167
0.325000
0.229167
0.554167
0.554167
0.562500
0.558333
0.558333
0.554167
0.554167
0.562500
0.562500
0.558333
0.558333
0.554167
0.558333
0.558333
0.579167
0.600000
0.587500
0.475000
0.566667
0.566667
0.570833
0.570833
0.566667
0.562500
0.566667
0.566667
0.570833
0.562500
0.558333
0.562500
0.566667
0.566667
0.558333
0.558333
0.558333
0.566667
0.558333
0.554167
0.558333
0.558333
0.562500
0.558333
0.550000
0.558333
0.562500
0.558333
0.554167
0.554167
0.558333
0.558333
0.554167
0.554167
0.554167
0.554167
0.558333
0.554167
0.554167
0.550000
0.554167
0.558333
0.554167
0.554167
0.550000
0.554167
0.562500
0.550000
0.554167
0.554167
0.558333
0.566667
0.554167
0.554167
0.554167
0.562500
0.562500
0.558333
0.554167
0.558333
0.562500
0.562500
0.566667
0.558333
0.558333
0.558333
0.562500
0.566667
0.562500
0.558333
0.558333
0.562500
0.562500
0.566667
0.562500
0.558333
0.562500
0.562500
0.566667
0.558333
0.562500
0.558333
0.562500
0.566667
0.558333
0.558333
0.562500
0.562500
0.562500
0.566667
0.558333
0.558333
0.558333
0.562500
0.566667
0.554167
0.562500
0.558333
0.558333
0.566667
0.562500
0.558333
0.554167
0.558333
0.562500
0.562500
0.554167
0.558333
0.558333
0.558333
0.562500
0.562500
0.558333
0.554167
0.558333
0.558333
0.562500
0.558333
0.554167
0.554167
0.558333
0.562500
0.558333
0.554167
0.341667
0.445833
0.325000
0.562500
0.558333
0.554167
0.554167
0.558333
0.558333
0.566667
0.554167
0.558333
0.554167
0.562500
0.562500
0.558333
0.554167
0.558333
0.562500
0.562500
0.558333
0.558333
0.554167
0.562500
0.562500
0.562500
0.558333
0.554167
0.562500
0.558333
0.566667
0.554167
0.554167
0.558333
0.558333
0.566667
0.554167
0.554167
0.558333
0.558333
0.562500
0.558333
0.558333
0.554167
0.562500
0.562500
0.562500
0.558333
0.558333
0.558333
0.558333
0.566667
0.558333
0.558333
0.562500
0.562500
0.566667
0.562500
0.558333
0.562500
0.566667
0.562500
0.562500
0.654167
0.462500
0.566667
0.562500
0.566667
0.558333
0.558333
0.562500
0.558333
0.562500
0.566667
0.558333
0.558333
0.558333
0.562500
0.566667
0.558333
0.558333
0.558333
0.558333
0.562500
0.562500
0.558333
0.862500
0.362500
0.258333
0.304167
0.229167
0.700000
0.429167
0.387500
0.375000
0.287500
0.270833
0.304167
0.237500
0.354167
0.291667
0.245833
0.520833
0.266667
0.262500
0.604167
0.250000
0.558333
0.562500
0.558333
0.558333
0.329167
0.225000
0.558333
0.554167
0.562500
0.562500
0.558333
0.554167
0.562500
0.566667
0.562500
0.562500
0.558333
0.566667
0.562500
0.558333
0.558333
0.562500
0.566667
0.558333
0.558333
0.562500
0.562500
0.562500
0.558333
0.558333
0.558333
0.566667
0.562500
0.558333
0.558333
0.566667
0.562500
0.566667
0.562500
0.558333
0.566667
0.566667
0.562500
0.558333
0.562500
0.562500
0.566667
0.562500
0.558333
0.562500
0.562500
0.566667
0.558333
0.562500
0.558333
0.566667
0.566667
0.558333
0.562500
0.562500
0.562500
0.566667
0.562500
0.558333
0.562500
0.566667
0.566667
0.558333
0.562500
0.562500
0.566667
0.566667
0.558333
0.562500
0.566667
0.566667
0.562500
0.558333
0.562500
0.566667
0.566667
0.566667
0.562500
0.562500
0.562500
0.570833
0.562500
0.562500
0.566667
0.566667
0.570833
0.562500
0.562500
0.562500
0.570833
0.562500
0.562500
0.562500
0.566667
0.566667
0.562500
0.562500
0.562500
0.562500
0.570833
0.558333
0.558333
0.562500
0.562500
0.566667
0.558333
0.562500
0.558333
0.562500
0.566667
0.562500
0.558333
0.558333
0.566667
0.566667
0.304167
0.237500
0.570833
0.566667
0.566667
0.570833
0.562500
0.562500
0.566667
