0.537500
0.537500
0.537500
0.533333
0.537500
0.537500
0.537500
0.533333
0.537500
0.533333
0.541667
0.537500
0.533333
0.537500
0.537500
0.541667
0.537500
0.537500
0.537500
0.537500
0.537500
0.537500
0.537500
0.537500
0.545833
0.537500
0.537500
0.537500
0.541667
0.537500
0.545833
0.537500
0.541667
0.537500
0.541667
0.545833
0.537500
0.541667
0.533333
0.545833
0.537500
0.541667
0.541667
0.545833
0.541667
0.541667
0.545833
0.537500
0.537500
0.541667
0.541667
0.541667
0.550000
0.541667
0.541667
0.537500
0.541667
0.541667
0.550000
0.545833
0.541667
0.541667
0.537500
0.545833
0.545833
0.545833
0.541667
0.541667
0.537500
0.537500
0.545833
0.545833
0.541667
0.537500
0.537500
0.537500
0.545833
0.545833
0.541667
0.537500
0.545833
0.545833
0.541667
0.537500
0.541667
0.541667
0.550000
0.541667
0.537500
0.541667
0.545833
0.545833
0.545833
0.541667
0.541667
0.541667
0.541667
0.341667
0.604167
0.679167
0.541667
0.545833
0.545833
0.633333
0.441667
0.654167
0.437500
0.450000
0.637500
0.541667
0.550000
0.545833
0.541667
0.541667
0.550000
0.541667
0.541667
0.541667
0.550000
0.541667
0.541667
0.541667
0.541667
0.545833
0.541667
0.537500
0.545833
0.541667
0.541667
0.537500
0.537500
0.537500
0.545833
0.537500
0.541667
0.691667
0.383333
0.541667
0.541667
0.537500
0.533333
0.541667
0.545833
0.537500
0.537500
0.541667
0.537500
0.541667
0.545833
0.541667
0.537500
0.541667
0.545833
0.350000
0.737500
0.533333
0.550000
0.545833
0.550000
0.550000
0.545833
0.550000
0.554167
0.554167
0.545833
0.545833
0.545833
0.554167
0.541667
0.545833
0.545833
0.545833
0.550000
0.541667
0.541667
0.545833
0.550000
0.537500
0.541667
0.541667
0.545833
0.545833
0.537500
0.541667
0.541667
0.545833
0.537500
0.541667
0.537500
0.545833
0.537500
0.537500
0.541667
0.537500
0.545833
0.537500
0.537500
0.537500
0.545833
0.541667
0.537500
0.537500
0.541667
0.545833
0.537500
0.537500
0.537500
0.545833
0.537500
0.537500
0.537500
0.537500
0.541667
0.537500
0.537500
0.541667
0.541667
0.537500
0.533333
0.541667
0.541667
0.533333
0.537500
0.537500
0.545833
0.541667
0.541667
0.545833
0.595833
0.208333
0.287500
0.545833
0.550000
0.545833
0.550000
0.554167
0.545833
0.545833
0.566667
0.541667
0.554167
0.554167
0.558333
0.558333
0.550000
0.554167
0.554167
0.554167
0.550000
0.550000
0.545833
0.545833
0.554167
0.541667
0.541667
0.545833
0.550000
0.541667
0.537500
0.541667
0.545833
0.533333
0.537500
0.537500
0.541667
0.541667
0.533333
0.537500
0.533333
0.541667
0.541667
0.537500
0.533333
0.537500
0.541667
0.537500
0.537500
0.533333
0.537500
0.541667
0.533333
0.533333
0.537500
0.537500
0.541667
0.533333
0.533333
0.537500
0.533333
0.541667
0.537500
0.533333
0.533333
0.495833
0.587500
0.541667
0.454167
0.270833
0.362500
0.545833
0.541667
0.545833
0.545833
0.541667
0.545833
0.541667
0.545833
0.550000
0.541667
0.541667
0.541667
0.545833
0.541667
0.537500
0.541667
0.541667
0.537500
0.537500
0.537500
0.537500
0.541667
0.537500
0.533333
0.537500
0.541667
0.537500
0.533333
0.537500
0.537500
0.541667
0.533333
0.537500
0.533333
0.541667
0.537500
0.533333
0.537500
0.537500
0.541667
0.533333
0.537500
0.533333
0.537500
0.541667
0.533333
0.216667
0.541667
0.320833
0.541667
0.541667
0.337500
0.754167
0.291667
0.254167
0.554167
0.550000
0.550000
0.483333
0.612500
0.550000
0.554167
0.545833
0.554167
0.550000
0.554167
0.545833
0.541667
0.550000
0.550000
0.545833
0.541667
0.545833
0.550000
0.537500
0.541667
0.541667
0.541667
0.537500
0.537500
0.537500
0.541667
0.537500
0.533333
0.537500
0.537500
0.537500
0.533333
0.533333
0.533333
0.537500
0.533333
0.529167
0.529167
0.537500
0.537500
0.645833
0.950000
0.537500
0.537500
0.537500
0.541667
0.541667
0.541667
0.541667
0.541667
0.537500
0.541667
0.545833
0.537500
0.537500
0.537500
0.545833
0.533333
0.533333
0.537500
0.541667
0.533333
0.537500
0.533333
0.537500
0.533333
0.529167
0.537500
0.537500
0.533333
0.529167
0.529167
0.537500
0.537500
0.533333
0.533333
0.537500
0.533333
0.533333
0.529167
0.533333
0.537500
0.529167
0.529167
0.533333
0.533333
0.529167
0.529167
0.529167
0.533333
0.529167
0.533333
0.529167
0.533333
0.533333
0.529167
0.529167
0.529167
0.533333
0.533333
0.533333
0.533333
0.529167
0.533333
0.533333
0.533333
0.533333
0.529167
0.533333
0.537500
0.533333
0.529167
0.533333
0.541667
0.529167
0.533333
0.266667
0.262500
0.537500
0.537500
0.533333
0.529167
0.533333
0.537500
0.537500
0.533333
0.529167
0.533333
0.533333
0.541667
0.529167
0.533333
0.533333
0.537500
0.533333
0.529167
0.533333
0.533333
0.537500
0.533333
0.533333
0.529167
0.537500
0.533333
0.533333
0.533333
0.533333
0.537500
0.537500
0.533333
0.533333
0.533333
0.533333
0.541667
0.533333
0.533333
0.533333
0.537500
0.537500
0.533333
0.533333
0.537500
0.537500
0.533333
0.533333
0.533333
0.541667
0.533333
0.533333
0.533333
0.533333
0.541667
0.533333
0.533333
0.533333
0.537500
0.537500
0.533333
0.537500
0.533333
0.537500
0.533333
0.533333
0.533333
0.533333
0.537500
0.533333
0.533333
0.533333
0.533333
0.537500
0.533333
0.533333
0.537500
0.537500
0.533333
0.533333
0.533333
0.537500
0.537500
0.533333
0.537500
0.533333
0.537500
0.541667
0.533333
0.537500
0.537500
0.541667
0.537500
0.533333
0.537500
0.537500
0.541667
0.537500
0.533333
0.533333
0.537500
0.541667
0.537500
0.533333
0.533333
0.537500
0.537500
0.533333
0.537500
0.541667
0.533333
0.533333
0.537500
0.537500
0.537500
0.533333
0.533333
0.537500
0.537500
0.537500
0.533333
0.537500
0.533333
0.541667
0.533333
0.537500
0.533333
0.533333
0.541667
0.533333
0.537500
0.533333
0.533333
0.541667
0.533333
0.533333
0.533333
0.537500
0.537500
0.533333
0.529167
0.533333
0.537500
0.533333
0.533333
0.533333
0.533333
0.533333
0.537500
0.533333
0.533333
0.533333
0.537500
0.533333
0.529167
0.533333
0.533333
0.541667
0.533333
0.533333
0.533333
0.533333
0.541667
0.533333
0.533333
0.533333
0.537500
0.537500
0.533333
0.533333
0.533333
0.537500
0.633333
0.441667
0.533333
0.529167
0.537500
0.541667
0.533333
0.533333
0.533333
0.533333
0.541667
0.533333
0.533333
0.533333
0.537500
0.537500
0.537500
0.533333
0.533333
0.537500
0.537500
0.533333
0.533333
0.537500
0.537500
0.533333
0.537500
0.533333
0.533333
0.541667
0.537500
0.533333
0.533333
0.533333
0.537500
0.541667
0.533333
0.537500
0.533333
0.537500
0.541667
0.533333
0.533333
0.533333
0.537500
0.541667
0.533333
0.537500
0.533333
0.533333
0.541667
0.537500
0.537500
0.533333
0.533333
0.541667
0.537500
0.533333
0.537500
0.537500
0.537500
0.537500
0.537500
0.533333
0.537500
0.537500
0.537500
0.537500
0.533333
0.537500
0.537500
0.541667
0.537500
0.533333
0.533333
0.537500
0.533333
0.541667
0.533333
0.533333
0.537500
0.537500
0.537500
0.533333
0.533333
0.537500
0.537500
0.537500
0.533333
0.533333
0.533333
0.541667
0.533333
0.537500
0.533333
0.533333
0.537500
0.541667
0.533333
0.533333
0.537500
0.537500
0.541667
0.533333
0.537500
0.533333
0.537500
0.541667
0.533333
0.537500
0.533333
0.541667
0.537500
0.533333
0.537500
0.541667
0.533333
0.537500
0.533333
0.537500
0.537500
0.537500
0.537500
0.533333
0.533333
0.541667
0.537500
0.533333
0.537500
0.533333
0.541667
0.537500
0.537500
0.533333
0.537500
0.537500
0.541667
0.537500
0.537500
0.533333
0.537500
0.541667
0.537500
0.537500
0.533333
0.541667
0.537500
0.537500
0.533333
0.537500
0.541667
0.537500
0.533333
0.537500
0.537500
0.745833
0.341667
0.595833
0.325000
0.137500
0.537500
0.537500
0.537500
0.537500
0.533333
0.537500
0.537500
0.537500
0.537500
0.533333
0.537500
0.541667
0.537500
0.533333
0.537500
0.537500
0.541667
0.533333
0.537500
0.533333
0.537500
0.541667
0.533333
0.537500
0.533333
0.541667
0.541667
0.533333
0.537500
0.537500
0.537500
0.545833
0.541667
0.541667
0.541667
0.545833
0.554167
0.550000
0.550000
0.550000
0.558333
0.562500
0.562500
0.558333
0.558333
0.562500
0.575000
0.566667
0.566667
0.562500
0.558333
0.537500
0.595833
0.566667
0.554167
0.554167
0.558333
0.558333
0.554167
0.554167
0.554167
0.554167
0.558333
0.558333
0.554167
0.550000
0.554167
0.558333
0.550000
0.550000
0.550000
0.550000
0.550000
0.545833
0.550000
0.550000
0.545833
0.545833
0.550000
0.545833
0.550000
0.554167
0.545833
0.545833
0.545833
0.545833
0.554167
0.545833
0.541667
0.541667
0.545833
0.550000
0.541667
0.541667
0.545833
0.545833
0.545833
0.545833
0.545833
0.545833
0.558333
0.304167
0.250000
0.554167
0.554167
0.558333
0.554167
0.562500
0.562500
0.570833
0.570833
0.570833
0.570833
0.575000
0.583333
0.579167
0.575000
0.575000
0.575000
0.575000
0.570833
0.566667
0.562500
0.554167
0.566667
0.558333
0.558333
0.554167
0.550000
0.554167
0.554167
0.545833
0.550000
0.545833
0.550000
0.545833
0.545833
0.545833
0.545833
0.295833
0.266667
0.533333
0.541667
0.541667
0.541667
0.550000
0.537500
0.541667
0.537500
0.541667
0.545833
0.541667
0.541667
0.537500
0.541667
0.545833
0.537500
0.541667
0.537500
0.541667
0.541667
0.541667
0.537500
0.541667
0.533333
0.545833
0.541667
0.541667
0.537500
0.537500
0.541667
0.545833
0.541667
0.537500
0.537500
0.541667
0.541667
0.537500
0.541667
0.537500
0.537500
0.545833
0.537500
0.245833
0.312500
0.516667
0.541667
0.391667
0.687500
0.537500
0.537500
0.541667
0.541667
0.537500
0.537500
0.533333
0.537500
0.545833
0.537500
0.533333
0.537500
0.533333
0.541667
0.537500
0.329167
0.929167
0.141667
0.225000
0.520833
0.533333
0.533333
0.241667
0.295833
0.533333
0.537500
0.537500
0.537500
0.533333
0.533333
0.541667
0.537500
0.533333
0.537500
0.533333
0.533333
0.541667
0.537500
0.533333
0.537500
0.537500
0.541667
0.537500
0.537500
0.533333
0.541667
0.541667
0.537500
0.533333
0.241667
0.291667
0.545833
0.541667
0.537500
0.537500
0.554167
0.691667
0.158333
0.220833
0.208333
0.325000
0.537500
0.437500
0.350000
0.487500
0.879167
0.625000
0.445833
0.537500
0.716667
0.116667
0.429167
0.775000
0.729167
0.462500
0.537500
0.545833
0.537500
0.537500
0.545833
0.541667
0.537500
0.541667
0.537500
0.541667
0.541667
0.545833
0.537500
0.541667
0.537500
0.541667
0.537500
0.541667
0.541667
0.541667
0.541667
0.537500
0.541667
0.537500
0.541667
0.537500
0.550000
0.229167
0.304167
0.537500
0.333333
0.225000
0.225000
0.237500
0.229167
0.266667
0.645833
0.537500
0.541667
0.537500
0.545833
0.537500
0.541667
0.541667
0.541667
0.545833
0.312500
0.229167
0.541667
0.541667
0.541667
0.545833
0.541667
0.541667
0.541667
0.541667
0.545833
0.537500
0.541667
0.541667
0.541667
0.545833
0.195833
0.345833
0.541667
0.541667
0.541667
0.141667
0.400000
0.541667
0.541667
0.487500
0.770833
0.466667
0.450000
0.541667
0.537500
0.550000
0.541667
0.541667
0.541667
0.545833
0.545833
0.545833
0.229167
0.316667
0.541667
0.191667
0.308333
0.095833
0.504167
0.541667
0.537500
0.520833
0.329167
0.245833
0.533333
0.558333
0.529167
0.545833
0.541667
0.541667
0.537500
0.541667
0.550000
0.537500
0.541667
0.541667
0.541667
0.654167
