0.441667
0.450000
0.437500
0.445833
0.441667
0.445833
0.450000
0.437500
0.450000
0.437500
0.441667
0.445833
0.441667
0.450000
0.441667
0.437500
0.441667
0.441667
0.450000
0.450000
0.429167
0.450000
0.441667
0.433333
0.454167
0.437500
0.445833
0.445833
0.429167
0.450000
0.445833
0.433333
0.454167
0.433333
0.450000
0.441667
0.433333
0.450000
0.441667
0.450000
0.445833
0.429167
0.450000
0.441667
0.437500
0.450000
0.437500
0.454167
0.445833
0.425000
0.458333
0.441667
0.441667
0.450000
0.433333
0.450000
0.445833
0.433333
0.445833
0.437500
0.454167
0.445833
0.433333
0.450000
0.437500
0.445833
0.445833
0.437500
0.450000
0.437500
0.445833
0.445833
0.433333
0.450000
0.441667
0.445833
0.445833
0.433333
0.450000
0.441667
0.450000
0.445833
0.437500
0.450000
0.437500
0.445833
0.445833
0.441667
0.450000
0.441667
0.441667
0.445833
0.441667
0.445833
0.445833
0.445833
0.445833
0.437500
0.450000
0.441667
0.445833
0.441667
0.445833
0.450000
0.437500
0.445833
0.441667
0.441667
0.450000
0.441667
0.445833
0.441667
0.441667
0.445833
0.437500
0.450000
0.445833
0.437500
0.445833
0.441667
0.445833
0.441667
0.445833
0.450000
0.433333
0.450000
0.437500
0.445833
0.445833
0.441667
0.450000
0.437500
0.445833
0.441667
0.441667
0.441667
0.441667
0.441667
0.450000
0.445833
0.445833
0.445833
0.437500
0.441667
0.445833
0.437500
0.445833
0.441667
0.441667
0.445833
0.437500
0.454167
0.441667
0.441667
0.450000
0.433333
0.445833
0.445833
0.437500
0.450000
0.445833
0.445833
0.450000
0.433333
0.445833
0.441667
0.450000
0.445833
0.437500
0.445833
0.441667
0.445833
0.450000
0.441667
0.445833
0.441667
0.445833
0.445833
0.437500
0.450000
0.445833
0.441667
0.445833
0.441667
0.441667
0.445833
0.441667
0.445833
0.445833
0.441667
0.445833
0.437500
0.450000
0.441667
0.450000
0.445833
0.437500
0.445833
0.441667
0.445833
0.445833
0.445833
0.445833
0.441667
0.450000
0.441667
0.441667
0.445833
0.441667
0.450000
0.445833
0.437500
0.450000
0.437500
0.450000
0.445833
0.445833
0.450000
0.433333
0.450000
0.441667
0.445833
0.450000
0.441667
0.445833
0.450000
0.433333
0.450000
0.445833
0.450000
0.450000
0.433333
0.450000
0.445833
0.441667
0.450000
0.441667
0.450000
0.445833
0.445833
0.450000
0.441667
0.450000
0.445833
0.450000
0.450000
0.441667
0.445833
0.450000
0.441667
0.454167
0.445833
0.450000
0.454167
0.433333
0.454167
0.445833
0.454167
0.454167
0.433333
0.454167
0.445833
0.441667
0.454167
0.437500
0.454167
0.445833
0.441667
0.450000
0.441667
0.450000
0.445833
0.441667
0.454167
0.441667
0.445833
0.450000
0.437500
0.458333
0.445833
0.441667
0.454167
0.433333
0.458333
0.450000
0.437500
0.454167
0.437500
0.458333
0.450000
0.429167
0.454167
0.445833
0.450000
0.450000
0.437500
0.450000
0.445833
0.445833
0.454167
0.437500
0.454167
0.450000
0.433333
0.454167
0.445833
0.445833
0.454167
0.433333
0.450000
0.445833
0.441667
0.454167
0.441667
0.454167
0.450000
0.429167
0.458333
0.441667
0.445833
0.458333
0.433333
0.454167
0.450000
0.433333
0.454167
0.445833
0.454167
0.450000
0.433333
0.454167
0.445833
0.441667
0.458333
0.437500
0.450000
0.450000
0.437500
0.450000
0.445833
0.450000
0.450000
0.437500
0.450000
0.445833
0.441667
0.454167
0.441667
0.454167
0.445833
0.433333
0.454167
0.445833
0.450000
0.454167
0.429167
0.454167
0.445833
0.441667
0.454167
0.437500
0.462500
0.450000
0.433333
0.450000
0.441667
0.450000
0.454167
0.433333
0.454167
0.445833
0.437500
0.450000
0.441667
0.458333
0.450000
0.429167
0.454167
0.445833
0.441667
0.454167
0.437500
0.458333
0.450000
0.429167
0.454167
0.445833
0.450000
0.454167
0.429167
0.454167
0.445833
0.441667
0.454167
0.441667
0.454167
0.450000
0.433333
0.454167
0.441667
0.450000
0.454167
0.437500
0.458333
0.445833
0.437500
0.454167
0.441667
0.462500
0.454167
0.429167
0.458333
0.445833
0.445833
0.458333
0.433333
0.466667
0.454167
0.429167
0.462500
0.445833
0.450000
0.458333
0.429167
0.437500
0.504167
0.437500
0.429167
0.454167
1.350000
0.862500
0.400000
0.316667
0.416667
0.495833
0.354167
0.320833
0.333333
0.304167
0.300000
0.316667
0.350000
1.166667
1.225000
1.283333
0.866667
1.537500
0.954167
0.329167
1.166667
0.937500
0.333333
0.758333
0.645833
0.583333
0.995833
0.725000
0.404167
0.354167
1.033333
1.037500
0.883333
0.720833
0.795833
0.658333
0.420833
0.341667
0.558333
0.587500
0.633333
0.616667
0.541667
0.550000
0.675000
0.658333
0.633333
0.666667
1.554167
0.716667
1.029167
0.729167
0.462500
0.362500
0.325000
0.316667
0.308333
0.320833
0.329167
0.333333
0.325000
0.325000
0.337500
0.475000
1.470833
0.425000
1.300000
0.741667
0.491667
0.370833
0.325000
0.350000
0.329167
0.325000
0.320833
0.329167
1.391667
0.833333
0.862500
0.729167
0.595833
0.845833
0.616667
0.620833
0.650000
0.408333
0.337500
0.308333
0.312500
0.345833
0.329167
0.320833
0.325000
0.350000
0.370833
0.333333
0.333333
0.320833
0.458333
0.437500
0.370833
0.391667
0.362500
0.358333
1.404167
0.325000
0.320833
0.445833
0.533333
0.366667
0.325000
0.362500
0.341667
0.312500
0.708333
0.579167
1.504167
0.333333
0.320833
0.295833
0.279167
0.270833
0.300000
0.308333
0.345833
0.362500
0.325000
0.325000
0.379167
0.337500
0.329167
0.316667
0.320833
0.420833
0.350000
0.312500
0.358333
0.341667
0.395833
0.383333
0.450000
0.350000
0.391667
0.395833
0.337500
0.337500
0.350000
0.325000
0.379167
0.325000
0.362500
0.341667
0.345833
0.341667
0.329167
0.308333
0.350000
0.362500
0.433333
0.375000
0.345833
0.308333
0.291667
0.333333
0.450000
0.337500
0.312500
0.308333
0.454167
0.458333
0.341667
0.295833
0.291667
0.291667
0.325000
0.358333
1.537500
0.945833
1.166667
0.729167
1.541667
0.720833
0.416667
0.437500
0.354167
0.333333
0.379167
0.345833
0.312500
0.295833
0.329167
0.341667
0.329167
0.358333
0.341667
0.329167
0.337500
0.337500
0.333333
0.350000
0.337500
0.333333
0.345833
0.345833
0.329167
0.312500
0.308333
0.308333
0.366667
0.366667
0.337500
0.395833
1.641667
0.420833
0.341667
0.308333
0.604167
0.416667
1.183333
0.425000
0.337500
0.408333
0.366667
0.337500
0.345833
0.450000
1.191667
0.416667
0.329167
0.470833
0.358333
0.291667
0.291667
0.300000
0.283333
0.283333
1.537500
0.933333
0.420833
0.341667
0.350000
0.337500
0.454167
0.379167
0.325000
0.333333
0.362500
0.545833
0.362500
0.295833
0.420833
0.362500
0.325000
0.320833
0.325000
0.337500
0.337500
0.379167
1.933333
1.741667
0.808333
0.716667
0.591667
0.583333
0.595833
1.512500
0.845833
0.712500
0.575000
0.762500
0.645833
0.591667
1.958333
1.712500
1.829167
1.170833
1.587500
0.904167
0.720833
0.583333
0.591667
0.562500
1.475000
0.975000
0.758333
0.575000
0.595833
0.608333
0.720833
0.650000
0.708333
1.554167
0.941667
0.745833
0.583333
2.029167
0.770833
0.595833
0.400000
0.350000
0.320833
0.295833
0.391667
0.375000
0.337500
0.362500
0.354167
0.345833
0.333333
0.320833
0.312500
0.354167
0.345833
0.341667
0.595833
0.379167
0.579167
0.695833
0.700000
0.650000
0.408333
0.504167
0.370833
0.333333
1.995833
0.816667
0.737500
0.533333
0.370833
0.325000
0.316667
0.366667
1.720833
0.437500
0.337500
0.304167
0.325000
0.383333
0.337500
0.345833
0.337500
0.325000
0.383333
0.350000
0.345833
0.337500
0.308333
0.337500
0.350000
0.358333
0.329167
0.345833
0.387500
0.325000
0.312500
0.375000
0.341667
0.408333
0.387500
0.404167
0.558333
0.404167
2.029167
0.833333
0.416667
0.325000
0.308333
0.287500
0.295833
0.325000
0.308333
0.333333
0.341667
0.458333
0.345833
0.320833
0.329167
0.329167
0.320833
0.312500
0.325000
0.362500
0.333333
0.404167
0.391667
0.358333
0.341667
0.341667
0.366667
0.420833
0.645833
0.395833
0.525000
0.395833
0.562500
0.362500
0.300000
0.462500
0.387500
0.462500
0.358333
0.587500
0.366667
0.387500
0.341667
0.466667
0.475000
0.445833
0.458333
0.425000
0.350000
0.375000
0.341667
0.366667
0.350000
0.354167
0.341667
0.379167
0.420833
0.387500
0.358333
0.337500
0.325000
0.345833
0.337500
0.350000
0.362500
0.333333
0.370833
0.333333
0.304167
0.308333
0.420833
0.408333
0.333333
0.420833
0.479167
0.416667
0.383333
0.341667
0.429167
0.425000
0.441667
0.425000
0.379167
0.337500
0.358333
0.412500
0.333333
0.287500
0.320833
0.329167
0.316667
0.325000
0.408333
0.395833
0.341667
0.358333
0.412500
0.354167
0.329167
0.408333
0.395833
0.437500
0.354167
0.358333
0.437500
0.429167
0.370833
0.325000
0.316667
0.333333
0.354167
0.337500
0.329167
0.341667
0.375000
0.337500
0.358333
0.416667
0.366667
0.333333
0.316667
0.304167
0.354167
0.425000
0.375000
0.329167
0.370833
0.416667
0.341667
0.337500
0.412500
0.395833
0.337500
0.350000
0.420833
0.404167
0.350000
0.333333
0.395833
0.429167
0.391667
0.333333
0.325000
0.354167
0.325000
0.354167
0.408333
0.362500
0.333333
0.383333
0.408333
0.383333
0.333333
0.366667
0.412500
0.366667
0.329167
0.362500
0.416667
0.379167
0.337500
0.520833
0.408333
0.395833
0.350000
0.320833
0.383333
0.400000
0.366667
0.325000
0.345833
0.429167
0.437500
0.370833
0.350000
0.333333
0.341667
0.345833
0.337500
0.366667
0.329167
0.362500
0.383333
0.337500
0.345833
0.412500
0.408333
0.395833
0.345833
0.320833
0.354167
0.354167
0.325000
0.391667
0.416667
0.416667
0.383333
0.350000
0.333333
0.400000
0.395833
0.370833
0.316667
0.387500
0.400000
0.362500
0.329167
0.333333
0.329167
0.329167
0.400000
0.420833
0.375000
0.329167
0.370833
0.416667
0.416667
0.362500
0.329167
0.370833
0.416667
0.400000
0.362500
0.320833
0.354167
0.412500
0.383333
0.337500
0.325000
0.408333
0.420833
0.425000
0.370833
0.308333
0.341667
0.400000
0.441667
0.379167
0.366667
0.325000
0.341667
0.483333
0.391667
0.404167
0.408333
0.412500
0.379167
0.375000
0.320833
0.325000
0.295833
0.358333
0.412500
0.425000
0.412500
0.416667
0.350000
0.300000
0.283333
0.312500
0.345833
0.329167
0.387500
0.383333
0.375000
0.358333
0.545833
0.362500
0.316667
0.595833
0.387500
0.533333
0.362500
0.383333
0.425000
0.400000
0.341667
0.345833
0.391667
0.354167
0.341667
0.400000
0.412500
0.358333
0.329167
0.366667
0.387500
0.329167
0.333333
0.400000
0.366667
0.329167
0.379167
0.395833
0.345833
0.333333
0.404167
0.420833
0.404167
0.370833
0.333333
0.358333
0.375000
0.350000
0.329167
0.379167
0.366667
0.329167
0.366667
0.375000
0.354167
0.320833
0.408333
0.350000
0.304167
0.387500
0.416667
0.437500
0.404167
0.416667
0.404167
0.412500
0.350000
0.308333
0.291667
0.312500
0.387500
0.337500
0.325000
0.358333
0.345833
0.316667
0.308333
0.325000
0.375000
0.325000
0.325000
0.404167
0.329167
0.304167
0.312500
0.375000
0.350000
0.325000
0.337500
0.337500
0.333333
0.329167
0.333333
0.337500
0.329167
0.333333
0.329167
0.333333
0.333333
0.333333
0.329167
0.337500
0.337500
0.333333
0.337500
0.337500
0.333333
0.329167
0.341667
0.337500
0.337500
0.337500
0.337500
0.329167
0.333333
0.341667
0.337500
0.329167
0.337500
0.337500
0.337500
0.337500
0.337500
0.333333
0.333333
0.341667
0.337500
0.329167
0.337500
0.333333
0.333333
0.333333
0.333333
0.337500
0.333333
0.333333
0.341667
0.333333
0.329167
0.341667
0.341667
0.329167
0.333333
0.337500
0.333333
0.337500
0.337500
0.337500
0.329167
0.341667
0.337500
0.333333
0.337500
0.337500
0.333333
0.329167
0.337500
0.337500
0.333333
0.337500
0.333333
0.333333
0.333333
0.333333
0.337500
0.333333
0.333333
0.337500
0.333333
0.329167
0.333333
0.333333
0.333333
0.337500
0.333333
0.333333
0.333333
0.333333
0.333333
0.329167
0.316667
0.308333
0.300000
0.333333
0.354167
0.333333
0.320833
0.350000
0.341667
0.329167
0.341667
0.333333
0.329167
0.337500
0.337500
0.329167
0.333333
0.341667
0.333333
0.316667
0.312500
0.420833
0.341667
0.312500
0.312500
0.300000
1.462500
1.570833
1.375000
0.933333
0.854167
1.391667
1.508333
0.875000
0.687500
0.783333
0.862500
0.879167
0.975000
0.945833
0.987500
0.733333
0.758333
0.825000
0.725000
1.125000
0.804167
0.766667
0.729167
0.725000
1.220833
0.820833
0.750000
0.729167
0.720833
0.733333
1.254167
0.787500
0.737500
0.783333
0.750000
0.725000
0.720833
0.708333
1.279167
0.733333
0.429167
0.358333
0.454167
0.795833
0.945833
0.687500
0.520833
0.400000
0.358333
0.316667
0.241667
0.300000
0.291667
0.354167
0.666667
0.879167
0.795833
0.650000
0.479167
0.395833
0.391667
0.345833
0.329167
0.333333
0.345833
0.350000
0.329167
0.337500
0.316667
0.325000
0.316667
0.287500
0.287500
0.337500
0.375000
0.337500
0.450000
0.375000
0.316667
0.308333
0.395833
0.404167
0.370833
0.337500
0.308333
0.312500
0.320833
0.358333
0.366667
0.416667
0.333333
0.300000
0.308333
0.325000
0.350000
0.337500
0.379167
0.345833
0.325000
0.329167
0.350000
0.491667
0.383333
0.341667
0.350000
0.412500
0.483333
0.350000
0.300000
0.295833
0.320833
0.337500
0.350000
0.345833
0.345833
0.358333
0.333333
0.337500
0.354167
0.362500
0.325000
0.312500
0.354167
