0.512500
0.500000
0.512500
0.508333
0.508333
0.504167
0.508333
0.508333
0.508333
0.508333
0.508333
0.504167
0.504167
0.504167
0.504167
0.500000
0.500000
0.504167
0.504167
0.495833
0.500000
0.500000
0.495833
0.500000
0.495833
0.495833
0.500000
0.495833
0.500000
0.491667
0.495833
0.500000
0.495833
0.500000
0.495833
0.491667
0.500000
0.495833
0.495833
0.491667
0.495833
0.495833
0.495833
0.495833
0.491667
0.495833
0.500000
0.495833
0.495833
0.504167
0.495833
0.491667
0.504167
0.487500
0.491667
0.491667
0.491667
0.495833
0.495833
0.491667
0.491667
0.495833
0.491667
0.491667
0.483333
0.491667
0.495833
0.491667
0.487500
0.487500
0.495833
0.491667
0.491667
0.483333
0.491667
0.491667
0.495833
0.491667
0.491667
0.491667
0.491667
0.495833
0.487500
0.495833
0.495833
0.491667
0.487500
0.491667
0.491667
0.495833
0.491667
0.495833
0.504167
0.508333
0.504167
0.504167
0.500000
0.508333
0.504167
0.504167
0.500000
0.504167
0.500000
0.504167
0.500000
0.500000
0.500000
0.500000
0.504167
0.500000
0.500000
0.500000
0.504167
0.504167
0.508333
0.508333
0.508333
0.512500
0.512500
0.512500
0.508333
0.508333
0.512500
0.508333
0.508333
0.508333
0.508333
0.516667
0.512500
0.508333
0.512500
0.508333
0.512500
0.516667
0.512500
0.512500
0.512500
0.508333
0.512500
0.512500
0.508333
0.512500
0.508333
0.512500
0.512500
0.508333
0.512500
0.508333
0.508333
0.504167
0.512500
0.508333
0.508333
0.508333
0.504167
0.512500
0.508333
0.508333
0.508333
0.516667
0.512500
0.516667
0.516667
0.516667
0.520833
0.512500
0.516667
0.516667
0.525000
0.408333
0.629167
0.529167
0.525000
0.525000
0.520833
0.525000
0.520833
0.520833
0.516667
0.516667
0.516667
0.516667
0.512500
0.516667
0.516667
0.516667
0.520833
0.520833
0.520833
0.520833
0.520833
0.525000
0.520833
0.516667
0.520833
0.520833
0.516667
0.520833
0.516667
0.512500
0.516667
0.516667
0.516667
0.520833
0.512500
0.516667
0.516667
0.525000
0.516667
0.520833
0.520833
0.520833
0.520833
0.520833
0.520833
0.516667
0.520833
0.520833
0.520833
0.520833
0.537500
0.541667
0.537500
0.533333
0.533333
0.525000
0.520833
0.520833
0.516667
0.512500
0.512500
0.512500
0.508333
0.508333
0.512500
0.512500
0.512500
0.516667
0.516667
0.516667
0.512500
0.516667
0.516667
0.516667
0.516667
0.516667
0.520833
0.516667
0.516667
0.520833
0.512500
0.520833
0.516667
0.512500
0.512500
0.512500
0.508333
0.512500
0.512500
0.508333
0.508333
0.508333
0.508333
0.512500
0.508333
0.504167
0.508333
0.508333
0.508333
0.508333
0.508333
0.508333
0.512500
0.512500
0.512500
0.508333
0.512500
0.512500
0.520833
0.512500
0.516667
0.516667
0.520833
0.520833
0.520833
0.520833
0.512500
0.520833
0.512500
0.520833
0.516667
0.516667
0.516667
0.516667
0.516667
0.516667
0.525000
0.400000
0.633333
0.529167
0.520833
0.525000
0.516667
0.525000
0.516667
0.520833
0.520833
0.512500
0.516667
0.508333
0.508333
0.508333
0.504167
0.504167
0.504167
0.500000
0.504167
0.504167
0.504167
0.508333
0.504167
0.508333
0.500000
0.512500
0.504167
0.512500
0.508333
0.508333
0.508333
0.508333
0.512500
0.508333
0.512500
0.512500
0.512500
0.512500
0.512500
0.520833
0.512500
0.512500
0.516667
0.516667
0.520833
0.520833
0.520833
0.520833
0.520833
0.520833
0.520833
0.516667
0.516667
0.516667
0.516667
0.520833
0.516667
0.525000
0.516667
0.520833
0.516667
0.516667
0.516667
0.516667
0.516667
0.520833
0.520833
0.516667
0.520833
0.516667
0.516667
0.520833
0.520833
0.520833
0.520833
0.525000
0.525000
0.525000
0.529167
0.529167
0.533333
0.529167
0.529167
0.525000
0.529167
0.525000
0.529167
0.529167
0.533333
0.537500
0.529167
0.529167
0.529167
0.525000
0.529167
0.525000
0.516667
0.520833
0.516667
0.516667
0.512500
0.508333
0.508333
0.508333
0.508333
0.504167
0.504167
0.504167
0.504167
0.500000
0.504167
0.504167
0.504167
0.500000
0.508333
0.500000
0.500000
0.500000
0.500000
0.491667
0.495833
0.500000
0.495833
0.500000
0.495833
0.500000
0.495833
0.495833
0.495833
0.495833
0.495833
0.495833
0.495833
0.495833
0.491667
0.495833
0.495833
0.500000
0.504167
0.500000
0.508333
0.508333
0.500000
0.500000
0.508333
0.504167
0.500000
0.504167
0.500000
0.504167
0.504167
0.500000
0.504167
0.495833
0.500000
0.500000
0.495833
0.491667
0.495833
0.491667
0.491667
0.487500
0.491667
0.487500
0.487500
0.487500
0.491667
0.491667
0.487500
0.495833
0.491667
0.491667
0.491667
0.495833
0.500000
0.500000
0.491667
0.495833
0.495833
0.495833
0.491667
0.495833
0.491667
0.500000
0.495833
0.495833
0.500000
0.500000
0.495833
0.500000
0.500000
0.500000
0.495833
0.495833
0.495833
0.500000
0.500000
0.500000
0.500000
0.495833
0.504167
0.508333
0.504167
0.508333
0.508333
0.504167
0.504167
0.500000
0.508333
0.500000
0.504167
0.500000
0.504167
0.504167
0.504167
0.504167
0.504167
0.504167
0.495833
0.504167
0.495833
0.495833
0.491667
0.495833
0.491667
0.491667
0.495833
0.491667
0.495833
0.491667
0.495833
0.491667
0.491667
0.491667
0.495833
0.491667
0.495833
0.491667
0.495833
0.491667
0.491667
0.491667
0.495833
0.400000
0.583333
0.495833
0.495833
0.495833
0.495833
0.500000
0.500000
0.500000
0.491667
0.495833
0.495833
0.500000
0.500000
0.500000
0.495833
0.500000
0.495833
0.504167
0.495833
0.504167
0.500000
0.500000
0.504167
0.504167
0.504167
0.500000
0.495833
0.462500
0.204167
0.829167
0.500000
0.495833
0.500000
0.495833
0.491667
0.487500
0.491667
0.491667
0.491667
0.487500
0.487500
0.491667
0.483333
0.487500
0.487500
0.487500
0.487500
0.487500
0.487500
0.487500
0.487500
0.491667
0.487500
0.491667
0.487500
0.487500
0.491667
0.491667
0.491667
0.983333
0.495833
0.495833
0.570833
0.425000
0.495833
0.616667
0.366667
0.495833
0.495833
0.250000
0.245833
1.004167
0.604167
0.400000
0.495833
0.245833
0.370833
0.391667
0.500000
0.491667
0.300000
0.116667
0.275000
0.770833
0.495833
0.487500
0.495833
0.491667
0.487500
0.620833
0.483333
0.387500
0.491667
0.495833
0.254167
0.237500
0.575000
0.395833
0.483333
0.479167
0.479167
0.391667
0.558333
0.475000
0.470833
0.466667
0.466667
0.466667
0.466667
0.466667
0.462500
0.462500
0.462500
0.466667
0.466667
0.458333
0.458333
0.466667
0.462500
0.462500
0.458333
0.458333
0.462500
0.462500
0.458333
0.458333
0.458333
0.462500
0.462500
0.454167
0.462500
0.458333
0.462500
0.458333
0.454167
0.458333
0.462500
0.391667
0.529167
0.462500
0.462500
0.462500
0.458333
0.462500
0.462500
0.462500
0.462500
0.458333
0.462500
0.466667
0.462500
0.354167
0.204167
0.341667
0.604167
0.245833
0.566667
0.366667
0.237500
0.320833
0.462500
0.462500
0.458333
0.462500
0.458333
0.454167
0.612500
0.316667
0.358333
0.700000
0.300000
0.362500
0.329167
0.262500
0.462500
0.462500
0.466667
0.458333
0.370833
0.550000
0.458333
0.458333
0.462500
0.454167
0.458333
0.462500
0.458333
0.458333
0.458333
0.462500
0.458333
0.462500
0.458333
0.462500
0.462500
0.916667
0.454167
0.458333
0.458333
0.245833
0.679167
0.595833
0.433333
0.350000
0.383333
0.541667
0.462500
0.462500
0.354167
0.108333
0.466667
0.458333
0.383333
0.183333
0.516667
0.316667
0.470833
0.462500
0.712500
0.225000
0.466667
0.466667
0.475000
0.612500
0.325000
0.462500
0.470833
0.470833
0.462500
0.466667
0.233333
0.441667
0.712500
0.462500
0.462500
0.466667
0.479167
0.600000
0.091667
0.225000
0.466667
0.466667
0.462500
0.466667
0.458333
0.462500
0.462500
0.458333
0.462500
0.458333
0.458333
0.462500
0.462500
0.458333
0.462500
0.345833
0.570833
0.462500
0.462500
0.466667
0.454167
0.466667
0.575000
0.812500
0.462500
0.466667
0.462500
0.462500
0.466667
0.462500
0.287500
0.633333
0.458333
0.462500
0.462500
0.454167
0.458333
0.458333
0.454167
0.454167
0.458333
0.458333
0.454167
0.458333
0.458333
0.458333
0.462500
0.458333
0.454167
0.458333
0.458333
0.454167
0.458333
0.462500
0.458333
0.462500
0.462500
0.466667
0.462500
0.458333
0.462500
0.462500
0.462500
0.462500
0.458333
0.525000
0.404167
0.462500
0.466667
0.920833
0.333333
1.062500
0.458333
0.462500
0.462500
0.925000
0.458333
0.462500
0.462500
0.462500
0.462500
0.458333
0.458333
0.462500
0.466667
0.466667
0.920833
0.458333
0.920833
0.466667
0.912500
0.462500
0.458333
0.462500
0.462500
0.458333
0.454167
0.916667
0.458333
0.458333
0.920833
0.458333
0.462500
0.458333
0.925000
0.458333
0.462500
0.462500
0.458333
0.462500
0.462500
0.466667
0.458333
0.466667
0.462500
0.466667
0.462500
0.462500
0.470833
0.458333
0.470833
0.466667
0.462500
0.458333
0.466667
0.462500
0.470833
0.466667
0.466667
0.466667
0.470833
0.462500
0.470833
0.466667
0.650000
1.212500
0.466667
0.462500
0.466667
0.475000
0.466667
0.475000
0.466667
0.470833
0.470833
0.466667
0.475000
0.475000
0.470833
0.941667
0.470833
0.466667
0.379167
0.562500
0.470833
0.470833
0.475000
0.466667
0.475000
0.475000
0.475000
0.470833
0.475000
0.470833
0.479167
0.475000
0.475000
0.483333
0.483333
0.483333
0.958333
0.479167
0.487500
0.479167
0.479167
0.479167
0.700000
0.258333
0.483333
0.495833
0.491667
0.487500
0.487500
0.475000
0.479167
0.479167
0.475000
0.475000
0.466667
0.462500
0.475000
0.470833
0.945833
0.466667
0.475000
0.475000
0.958333
0.483333
0.491667
0.500000
0.504167
0.504167
0.495833
0.491667
0.645833
0.325000
0.475000
0.470833
0.466667
0.925000
0.466667
0.458333
0.466667
0.912500
0.458333
0.458333
0.462500
0.916667
0.462500
0.458333
0.458333
0.458333
0.925000
0.462500
0.462500
0.458333
0.245833
0.350000
0.766667
0.462500
0.458333
0.462500
0.466667
0.458333
0.466667
0.458333
0.462500
0.466667
0.462500
0.920833
0.391667
0.537500
0.466667
0.462500
0.400000
0.525000
0.470833
0.458333
0.458333
0.458333
0.708333
0.208333
0.458333
0.462500
0.454167
0.462500
0.250000
0.112500
0.462500
0.545833
0.462500
0.466667
0.466667
0.458333
0.920833
0.462500
0.458333
0.462500
0.458333
0.912500
0.458333
0.458333
0.458333
0.458333
0.454167
0.916667
0.462500
0.462500
0.466667
0.462500
0.466667
0.925000
0.458333
0.458333
0.458333
0.358333
0.637500
0.841667
0.641667
0.450000
0.445833
0.283333
0.904167
0.454167
0.454167
0.454167
0.454167
0.458333
0.454167
0.458333
0.458333
0.454167
0.458333
0.458333
0.454167
0.462500
0.458333
0.458333
0.458333
0.462500
0.920833
0.462500
0.462500
0.466667
0.466667
0.466667
0.466667
0.929167
0.466667
0.462500
0.391667
0.629167
0.866667
0.870833
0.462500
0.916667
0.454167
0.462500
0.458333
0.916667
0.454167
0.458333
0.458333
0.462500
0.462500
0.462500
0.458333
0.925000
0.937500
0.470833
0.470833
0.470833
0.945833
0.470833
0.479167
0.483333
0.208333
0.270833
0.470833
0.466667
0.945833
0.470833
0.475000
0.470833
0.937500
0.470833
0.933333
0.470833
0.925000
0.466667
0.470833
0.466667
0.470833
0.466667
0.470833
0.470833
0.479167
0.475000
0.466667
0.479167
0.470833
0.479167
0.470833
0.479167
0.470833
0.470833
0.475000
0.475000
0.475000
0.479167
0.479167
0.475000
0.479167
0.479167
0.487500
0.483333
0.366667
0.595833
0.470833
0.483333
0.475000
0.479167
0.470833
0.479167
0.475000
0.470833
0.475000
0.470833
0.479167
0.470833
0.475000
0.583333
0.850000
0.475000
0.475000
0.475000
0.479167
0.475000
0.466667
0.483333
0.470833
0.475000
0.570833
0.208333
0.558333
0.541667
0.466667
0.470833
0.466667
0.929167
0.470833
0.466667
0.466667
0.466667
0.475000
0.475000
0.466667
0.470833
0.475000
0.475000
0.479167
0.475000
0.475000
0.475000
0.479167
0.475000
0.479167
0.479167
0.475000
0.483333
0.479167
0.483333
0.479167
0.483333
0.487500
0.483333
0.487500
0.487500
0.487500
0.479167
0.483333
0.479167
0.487500
0.487500
0.483333
0.487500
0.479167
0.487500
0.391667
0.579167
0.487500
0.487500
0.491667
0.483333
0.487500
0.491667
0.487500
0.487500
0.487500
