0.504167
0.495833
0.491667
0.504167
0.475000
0.495833
0.512500
0.466667
0.479167
1.545833
0.733333
0.425000
0.341667
0.295833
0.512500
0.695833
0.633333
0.637500
0.637500
0.575000
0.383333
1.600000
0.466667
1.454167
0.745833
0.629167
0.591667
0.658333
0.637500
0.570833
1.729167
0.783333
0.775000
0.633333
0.554167
0.550000
0.400000
0.420833
0.354167
0.325000
0.333333
0.325000
0.329167
0.325000
0.312500
0.341667
0.354167
0.329167
0.341667
0.325000
0.333333
0.383333
0.375000
0.333333
0.320833
0.350000
0.445833
0.429167
0.350000
0.300000
0.300000
0.383333
0.400000
0.337500
0.312500
0.341667
0.441667
0.329167
0.320833
0.329167
0.308333
0.304167
0.279167
0.308333
0.387500
1.466667
0.408333
0.366667
0.366667
0.616667
0.370833
0.308333
0.320833
0.320833
0.300000
0.445833
0.383333
0.345833
0.466667
0.666667
0.366667
0.300000
0.316667
0.337500
0.400000
0.533333
0.416667
0.475000
0.387500
0.379167
0.375000
0.358333
0.333333
0.358333
0.350000
0.316667
0.312500
0.383333
0.358333
0.316667
0.391667
0.358333
0.370833
0.470833
0.345833
0.291667
0.325000
0.333333
0.312500
0.291667
0.279167
0.345833
0.391667
0.333333
0.491667
0.358333
0.366667
0.366667
0.416667
0.387500
0.333333
0.329167
0.575000
0.379167
0.350000
0.333333
0.329167
0.425000
0.329167
0.325000
0.404167
0.350000
0.341667
0.445833
0.350000
0.341667
0.325000
0.304167
0.291667
0.375000
0.425000
0.400000
0.366667
0.412500
0.329167
0.325000
0.320833
0.295833
0.391667
0.375000
0.325000
0.329167
0.337500
0.358333
0.325000
0.308333
0.320833
0.525000
0.404167
0.366667
0.354167
0.312500
0.295833
0.316667
0.366667
0.391667
0.350000
0.366667
0.366667
0.337500
0.316667
0.316667
0.295833
0.329167
0.433333
0.366667
0.491667
0.354167
0.337500
0.337500
0.466667
0.358333
0.354167
0.404167
0.358333
0.362500
0.508333
0.341667
0.275000
0.304167
0.329167
0.408333
0.408333
0.366667
0.337500
0.308333
0.316667
0.416667
0.450000
0.333333
0.408333
0.416667
0.404167
0.491667
0.491667
0.479167
0.495833
0.383333
0.379167
0.329167
0.308333
0.312500
0.316667
0.329167
0.325000
0.320833
0.337500
0.383333
0.391667
0.316667
0.350000
0.391667
0.470833
0.333333
0.345833
0.408333
0.358333
0.354167
0.320833
0.333333
0.337500
0.345833
0.370833
0.333333
0.350000
0.362500
0.370833
0.345833
0.354167
0.450000
0.358333
0.333333
0.354167
0.362500
0.316667
0.345833
0.333333
0.358333
0.333333
0.308333
0.316667
0.358333
0.337500
0.333333
0.425000
0.379167
0.333333
0.333333
0.416667
0.341667
0.533333
0.383333
0.358333
0.337500
0.316667
0.325000
0.345833
0.316667
0.350000
0.375000
0.379167
0.433333
0.358333
0.383333
0.354167
0.345833
0.408333
0.337500
0.345833
0.341667
0.316667
0.316667
0.379167
0.470833
0.350000
0.329167
0.366667
0.341667
0.375000
0.375000
0.333333
0.379167
0.404167
0.375000
0.529167
0.370833
0.316667
0.425000
0.375000
0.325000
0.345833
0.337500
0.379167
0.450000
0.358333
0.354167
0.466667
0.337500
0.362500
0.383333
0.362500
0.379167
0.370833
0.341667
0.316667
0.358333
0.358333
0.325000
0.450000
0.325000
0.316667
0.358333
0.533333
0.370833
0.304167
0.508333
0.420833
0.329167
0.420833
0.475000
0.412500
0.354167
0.329167
0.416667
0.450000
0.391667
0.370833
0.345833
0.366667
0.333333
0.337500
0.404167
0.337500
0.320833
0.341667
0.366667
0.387500
0.366667
0.325000
0.345833
0.337500
0.333333
0.333333
0.329167
0.320833
0.316667
0.375000
0.337500
0.354167
0.362500
0.366667
0.366667
0.408333
0.333333
0.304167
0.287500
0.316667
0.333333
0.329167
0.358333
0.391667
0.337500
0.316667
0.295833
0.354167
1.729167
1.208333
1.241667
0.950000
0.883333
0.825000
1.404167
1.358333
1.266667
0.766667
1.312500
0.758333
0.733333
1.233333
0.775000
0.745833
1.162500
0.962500
0.912500
0.891667
0.858333
0.841667
0.829167
0.812500
0.741667
0.700000
0.704167
1.212500
0.770833
0.695833
0.704167
1.220833
0.770833
0.720833
0.704167
0.729167
1.220833
0.733333
0.754167
0.437500
0.341667
0.300000
0.275000
0.550000
0.654167
0.658333
0.612500
0.620833
0.587500
0.637500
0.695833
0.450000
0.487500
0.358333
0.370833
0.395833
1.245833
0.429167
1.362500
0.791667
0.954167
0.733333
0.475000
0.358333
0.300000
0.295833
0.620833
0.387500
0.341667
0.333333
0.362500
0.354167
0.337500
0.337500
0.354167
0.354167
0.350000
0.375000
0.391667
1.150000
0.754167
1.437500
0.775000
0.687500
0.675000
0.554167
0.579167
0.479167
0.362500
0.300000
0.237500
0.366667
0.316667
0.308333
0.316667
0.345833
0.337500
0.295833
0.333333
0.337500
0.308333
0.379167
0.404167
0.483333
0.370833
0.437500
0.345833
1.425000
0.729167
1.662500
0.737500
0.958333
0.695833
0.687500
0.420833
0.350000
0.375000
0.366667
0.325000
0.320833
0.325000
0.350000
0.370833
0.383333
0.345833
0.341667
0.341667
0.387500
1.529167
0.766667
0.766667
0.416667
0.337500
0.504167
0.400000
0.425000
0.408333
1.479167
0.770833
0.720833
0.587500
0.700000
0.670833
0.666667
0.641667
0.654167
0.658333
0.666667
0.708333
0.683333
0.687500
0.679167
0.683333
0.658333
0.616667
0.704167
0.654167
0.666667
0.675000
0.679167
0.666667
0.675000
0.675000
0.700000
0.679167
0.662500
0.683333
0.679167
0.670833
0.666667
0.670833
0.658333
0.675000
0.600000
0.695833
0.675000
0.679167
0.637500
0.645833
1.354167
0.820833
1.325000
0.804167
1.354167
0.733333
0.729167
1.270833
1.420833
1.779167
0.762500
0.637500
0.600000
0.612500
0.412500
0.341667
0.320833
0.329167
0.508333
0.370833
0.316667
0.333333
0.312500
0.283333
0.566667
1.354167
0.733333
1.650000
0.770833
0.795833
0.737500
0.491667
0.429167
1.366667
0.816667
0.445833
0.408333
0.383333
0.358333
0.400000
0.395833
0.350000
0.366667
1.262500
0.437500
1.275000
0.745833
0.858333
1.358333
0.766667
0.837500
1.504167
0.766667
0.425000
1.291667
0.750000
0.441667
0.370833
0.650000
1.558333
0.741667
0.770833
0.450000
0.354167
0.316667
0.312500
0.333333
0.329167
0.354167
0.375000
0.341667
0.329167
1.458333
0.745833
1.525000
0.729167
0.583333
0.400000
0.587500
0.704167
0.404167
0.333333
0.312500
0.312500
0.316667
0.425000
0.416667
0.362500
0.375000
0.441667
0.345833
0.345833
0.337500
0.354167
0.341667
0.337500
0.337500
0.341667
0.358333
0.329167
0.304167
0.308333
0.516667
0.358333
0.341667
0.337500
0.400000
0.337500
0.366667
0.462500
0.350000
0.591667
0.745833
0.379167
0.333333
0.345833
0.387500
0.445833
0.408333
0.400000
0.337500
0.316667
0.345833
0.387500
0.558333
0.379167
0.333333
0.354167
0.375000
0.354167
0.400000
0.379167
0.325000
0.291667
0.358333
0.412500
0.316667
0.312500
0.362500
0.395833
0.337500
0.408333
0.383333
0.337500
0.350000
0.337500
0.345833
0.362500
0.329167
0.350000
0.325000
0.333333
0.329167
0.333333
0.345833
0.387500
0.375000
0.341667
0.350000
0.341667
0.341667
0.337500
0.341667
0.333333
0.362500
0.345833
0.337500
0.391667
0.354167
0.337500
0.333333
0.429167
0.375000
0.341667
0.350000
0.341667
0.320833
0.325000
0.350000
0.350000
0.341667
0.304167
0.312500
0.329167
0.391667
0.362500
0.341667
0.366667
0.337500
0.345833
0.375000
0.341667
0.325000
0.325000
0.300000
0.320833
0.354167
0.345833
0.400000
0.350000
0.370833
0.437500
0.420833
0.350000
0.341667
0.412500
0.379167
0.333333
0.395833
0.387500
0.337500
0.329167
0.366667
0.329167
0.333333
0.337500
0.345833
0.341667
0.383333
0.366667
0.345833
0.383333
0.379167
0.333333
0.395833
0.433333
0.350000
0.337500
0.408333
0.358333
0.333333
0.408333
0.445833
0.375000
0.325000
0.395833
0.441667
0.416667
0.358333
0.408333
0.337500
0.320833
0.337500
0.362500
0.325000
0.350000
0.354167
0.358333
0.333333
0.291667
0.325000
0.362500
0.337500
0.354167
0.354167
0.337500
0.358333
0.341667
0.345833
0.333333
0.312500
0.316667
0.375000
0.383333
0.354167
0.375000
0.400000
0.325000
0.416667
0.404167
0.358333
0.329167
0.391667
0.541667
0.370833
0.312500
0.291667
0.320833
0.395833
0.454167
0.354167
0.341667
0.408333
0.387500
0.329167
0.354167
0.358333
0.337500
0.350000
0.329167
0.345833
0.337500
0.412500
0.362500
0.404167
0.362500
0.345833
0.341667
0.345833
0.370833
0.329167
0.350000
0.408333
0.350000
0.375000
0.383333
0.337500
0.354167
0.383333
0.333333
0.337500
0.333333
0.341667
0.337500
0.391667
0.375000
0.437500
0.504167
0.416667
0.320833
0.391667
0.362500
0.333333
0.412500
0.433333
0.354167
0.433333
0.345833
0.341667
0.333333
0.379167
0.387500
0.383333
0.308333
0.337500
0.333333
0.354167
0.358333
0.379167
0.341667
0.325000
0.341667
0.329167
0.350000
0.379167
0.487500
0.354167
0.370833
0.387500
0.558333
0.366667
0.375000
0.454167
0.345833
0.337500
0.320833
0.345833
0.345833
0.362500
0.366667
0.337500
0.375000
0.375000
0.333333
0.345833
0.333333
0.400000
0.412500
0.350000
0.345833
0.345833
0.400000
0.345833
0.412500
0.366667
0.333333
0.379167
0.379167
0.337500
0.345833
0.341667
0.329167
0.350000
0.329167
0.295833
0.354167
0.400000
0.408333
0.545833
0.370833
0.329167
0.400000
0.370833
0.329167
0.379167
0.450000
0.441667
0.404167
0.362500
0.341667
0.341667
0.333333
0.354167
0.341667
0.400000
0.391667
0.316667
0.329167
0.375000
0.333333
0.404167
0.329167
0.291667
0.354167
0.441667
0.337500
0.383333
0.512500
0.375000
0.337500
0.366667
0.445833
0.350000
0.337500
0.379167
0.400000
0.383333
0.333333
0.329167
0.333333
0.320833
0.333333
0.412500
0.354167
0.325000
0.350000
0.329167
0.379167
0.370833
0.337500
0.387500
0.366667
0.329167
0.333333
0.333333
0.329167
0.325000
0.341667
0.370833
0.379167
0.350000
0.329167
0.354167
0.366667
0.329167
0.308333
0.308333
0.320833
0.329167
0.341667
0.416667
0.391667
0.329167
0.366667
0.391667
0.358333
0.333333
0.320833
0.329167
0.337500
0.337500
0.350000
0.341667
0.345833
0.387500
0.416667
0.337500
0.325000
0.379167
0.354167
0.354167
0.425000
0.366667
0.329167
0.404167
0.383333
0.337500
0.337500
0.358333
0.337500
0.341667
0.354167
0.366667
0.337500
0.420833
0.366667
0.329167
0.362500
0.354167
0.325000
0.320833
0.300000
0.304167
0.308333
0.350000
0.462500
0.325000
0.320833
0.341667
0.312500
0.333333
0.362500
0.341667
0.354167
0.325000
0.312500
0.312500
0.320833
0.379167
0.362500
0.320833
0.420833
0.391667
0.333333
0.362500
0.337500
0.316667
0.337500
0.312500
0.404167
0.366667
0.420833
0.316667
0.329167
0.545833
0.366667
0.341667
0.308333
0.345833
0.370833
0.333333
0.329167
0.341667
0.341667
0.325000
0.362500
0.341667
0.358333
0.362500
0.316667
0.325000
0.350000
0.354167
0.333333
0.325000
0.333333
0.525000
0.387500
0.341667
0.291667
0.354167
0.366667
0.337500
0.312500
0.300000
0.312500
0.341667
0.320833
0.300000
0.333333
0.370833
0.320833
0.300000
0.329167
0.337500
0.362500
0.379167
0.387500
0.362500
0.341667
0.325000
0.312500
0.312500
0.329167
0.341667
0.329167
0.337500
0.358333
0.350000
0.362500
0.337500
0.362500
0.350000
0.391667
0.387500
0.412500
0.358333
0.295833
0.362500
0.337500
0.341667
0.383333
0.337500
0.329167
0.345833
0.320833
0.312500
0.337500
0.583333
0.354167
0.316667
0.395833
0.375000
0.337500
0.312500
0.333333
0.341667
0.329167
0.387500
0.341667
0.325000
0.333333
0.358333
0.420833
0.420833
0.370833
0.466667
0.341667
0.337500
0.429167
0.354167
0.325000
0.354167
0.362500
0.354167
0.333333
0.366667
0.329167
0.350000
0.333333
0.437500
0.470833
0.454167
0.337500
0.320833
0.316667
0.383333
0.391667
0.345833
0.295833
0.300000
0.600000
0.358333
0.325000
0.404167
0.341667
0.333333
0.391667
0.341667
0.337500
0.341667
0.345833
0.391667
0.341667
0.362500
0.341667
0.345833
0.425000
0.375000
0.337500
0.362500
0.341667
0.554167
0.341667
0.395833
0.387500
0.325000
0.370833
0.433333
0.341667
0.337500
0.354167
0.337500
0.366667
0.370833
0.379167
0.354167
0.316667
0.333333
0.333333
0.358333
0.345833
0.362500
0.358333
0.333333
0.366667
0.320833
0.337500
0.345833
0.350000
0.412500
0.366667
0.316667
0.291667
0.316667
0.329167
0.316667
0.433333
0.379167
0.333333
0.320833
0.329167
0.325000
0.325000
0.400000
0.362500
0.441667
0.366667
0.337500
0.337500
0.350000
0.350000
0.408333
0.354167
0.337500
0.375000
0.312500
0.279167
0.316667
0.333333
0.333333
0.312500
0.329167
0.400000
0.320833
0.312500
0.370833
0.375000
0.316667
0.358333
0.370833
0.329167
0.312500
0.316667
0.316667
0.308333
0.358333
0.416667
0.370833
0.375000
0.345833
0.395833
0.370833
0.325000
0.325000
0.341667
0.325000
0.312500
0.545833
0.416667
0.366667
0.337500
0.337500
0.329167
0.329167
0.350000
0.379167
0.391667
0.341667
0.408333
0.387500
0.325000
0.441667
0.487500
0.391667
0.445833
0.341667
1.829167
0.983333
1.000000
1.266667
1.008333
0.929167
0.945833
0.916667
0.920833
0.904167
0.870833
0.841667
0.833333
0.750000
0.775000
1.233333
0.887500
0.845833
0.820833
0.825000
0.729167
0.745833
1.204167
0.479167
0.987500
0.733333
0.708333
1.204167
0.770833
0.695833
1.237500
0.745833
0.704167
1.254167
0.741667
0.691667
0.741667
1.208333
0.770833
0.700000
0.700000
1.187500
0.762500
0.725000
0.700000
1.187500
0.762500
0.725000
0.704167
0.695833
1.216667
