0.491667
0.516667
0.487500
0.516667
0.487500
0.495833
0.491667
0.495833
0.495833
0.270833
0.241667
0.483333
0.491667
0.491667
0.491667
0.491667
0.508333
0.479167
0.487500
0.487500
0.487500
0.483333
0.487500
0.483333
0.483333
0.483333
0.479167
0.483333
0.479167
0.479167
0.479167
0.483333
0.479167
0.475000
0.479167
0.483333
0.275000
0.204167
0.216667
0.508333
0.170833
0.533333
0.204167
0.270833
0.262500
0.212500
0.475000
0.225000
0.245833
0.279167
0.066667
0.620833
0.366667
0.583333
0.191667
0.291667
0.262500
0.204167
0.487500
0.475000
0.479167
0.483333
0.479167
0.483333
0.245833
0.225000
0.162500
0.320833
0.479167
0.479167
0.479167
0.479167
0.479167
0.500000
0.470833
0.483333
0.479167
0.500000
0.470833
0.479167
0.483333
0.504167
0.470833
0.479167
0.479167
0.483333
0.487500
0.483333
0.479167
0.483333
0.483333
0.483333
0.500000
0.475000
0.475000
0.483333
0.500000
0.470833
0.479167
0.475000
0.504167
0.466667
0.475000
0.495833
0.470833
0.479167
0.475000
0.475000
0.420833
0.300000
0.250000
0.458333
0.479167
0.475000
0.475000
0.475000
0.475000
0.475000
0.475000
0.475000
0.470833
0.475000
0.479167
0.475000
0.479167
0.475000
0.479167
0.479167
0.475000
0.479167
0.625000
0.808333
0.479167
0.479167
0.475000
0.479167
0.475000
0.479167
0.475000
0.479167
0.479167
0.479167
0.479167
0.475000
0.479167
0.483333
0.479167
0.479167
0.483333
0.479167
0.483333
0.479167
0.483333
0.479167
0.479167
0.479167
0.483333
0.479167
0.479167
0.483333
0.479167
0.479167
0.479167
0.479167
0.479167
0.483333
0.483333
0.479167
0.479167
0.483333
0.487500
0.483333
0.483333
0.487500
0.483333
0.487500
0.487500
0.487500
0.487500
0.491667
0.487500
0.491667
0.487500
0.491667
0.487500
0.491667
0.487500
0.491667
0.491667
0.491667
0.487500
0.491667
0.491667
0.491667
0.487500
0.491667
0.491667
0.491667
0.491667
0.491667
0.491667
0.491667
0.491667
0.491667
0.491667
0.491667
0.495833
0.491667
0.491667
0.491667
0.287500
0.208333
0.495833
0.312500
0.179167
0.283333
0.425000
0.279167
0.295833
0.225000
0.475000
0.504167
0.495833
0.500000
0.495833
0.991667
0.495833
0.520833
0.483333
0.516667
0.487500
0.520833
0.487500
0.525000
0.487500
0.525000
0.487500
0.525000
0.487500
0.525000
0.483333
0.525000
0.312500
0.691667
0.491667
0.520833
0.487500
0.304167
0.220833
0.483333
0.520833
0.483333
0.520833
0.491667
0.516667
0.487500
0.516667
0.491667
0.520833
0.366667
0.279167
0.337500
0.258333
0.754167
0.841667
0.491667
0.829167
0.354167
0.500000
0.525000
0.483333
0.504167
0.520833
0.487500
1.175000
0.350000
0.487500
0.520833
0.779167
0.204167
0.520833
0.483333
0.504167
0.495833
0.500000
0.500000
0.500000
0.495833
0.500000
0.500000
0.500000
0.495833
0.500000
0.495833
0.495833
0.504167
0.495833
0.495833
0.495833
0.500000
0.500000
0.500000
0.495833
0.500000
0.495833
0.495833
0.500000
0.500000
0.500000
0.495833
0.500000
0.500000
0.500000
0.495833
0.495833
0.495833
0.500000
0.495833
0.500000
0.500000
0.995833
0.500000
0.500000
0.495833
0.495833
0.495833
0.495833
0.516667
0.558333
0.441667
0.487500
0.516667
0.483333
0.516667
0.479167
0.495833
0.491667
0.520833
0.483333
0.512500
0.479167
0.491667
0.516667
0.479167
0.491667
0.512500
0.479167
0.491667
0.491667
0.491667
0.487500
0.491667
0.491667
0.487500
0.491667
0.966667
0.591667
0.266667
0.620833
0.370833
0.600000
0.487500
0.487500
0.487500
0.487500
0.487500
0.487500
0.491667
0.483333
0.395833
0.575000
0.483333
0.487500
0.487500
0.487500
0.491667
0.487500
0.487500
0.487500
0.487500
0.491667
0.491667
0.983333
0.495833
0.495833
0.491667
0.495833
0.491667
0.500000
0.495833
0.491667
0.495833
0.500000
0.420833
0.562500
0.512500
0.495833
0.516667
0.483333
0.516667
0.479167
0.495833
0.516667
0.479167
0.495833
0.491667
0.404167
0.579167
0.487500
0.491667
0.491667
0.487500
0.491667
0.512500
0.483333
0.491667
0.487500
0.491667
0.508333
0.483333
0.491667
0.487500
0.491667
0.487500
0.491667
0.491667
0.491667
0.487500
0.491667
0.487500
0.491667
0.491667
0.487500
0.491667
0.487500
0.487500
0.491667
0.491667
0.487500
0.487500
0.487500
0.491667
0.487500
0.491667
0.495833
0.491667
0.491667
0.495833
0.491667
0.495833
0.500000
0.495833
0.495833
0.500000
0.495833
0.504167
0.500000
0.495833
0.500000
0.520833
0.487500
0.516667
0.487500
0.520833
0.487500
0.520833
0.483333
0.516667
0.487500
0.520833
0.483333
0.516667
0.487500
0.520833
0.487500
0.516667
0.483333
0.516667
0.483333
0.516667
0.254167
0.520833
0.704167
0.512500
0.483333
0.512500
0.483333
0.508333
0.483333
0.512500
0.479167
0.512500
0.479167
0.491667
0.491667
0.512500
0.483333
0.512500
0.483333
0.512500
0.483333
0.495833
0.258333
0.741667
0.512500
0.483333
0.516667
0.487500
0.516667
0.483333
0.516667
0.483333
0.516667
0.487500
0.516667
0.487500
0.520833
0.483333
0.504167
0.516667
0.491667
0.520833
0.487500
0.520833
0.487500
1.016667
0.520833
0.491667
0.520833
0.491667
0.520833
0.495833
0.520833
0.491667
0.520833
0.491667
0.391667
0.495833
0.600000
0.495833
0.525000
0.491667
0.520833
0.491667
0.520833
0.491667
0.525000
0.491667
0.520833
0.491667
0.525000
0.487500
0.520833
0.491667
0.520833
0.487500
0.516667
0.512500
0.487500
0.516667
0.491667
0.516667
0.491667
0.512500
0.487500
0.520833
0.487500
0.516667
0.483333
0.516667
0.491667
0.516667
0.483333
0.500000
0.495833
0.520833
0.487500
0.516667
0.483333
0.500000
0.516667
0.487500
0.516667
0.483333
0.500000
0.400000
0.483333
0.583333
0.495833
0.512500
0.487500
0.500000
0.516667
0.487500
0.500000
0.495833
0.500000
0.500000
0.500000
0.520833
0.416667
0.591667
0.487500
0.500000
0.520833
0.491667
0.520833
0.487500
0.520833
0.491667
0.525000
0.491667
0.520833
0.491667
0.516667
0.495833
0.520833
0.487500
0.404167
0.591667
0.500000
0.525000
0.487500
0.525000
0.487500
0.525000
0.491667
0.520833
0.495833
1.012500
0.529167
0.491667
0.516667
0.512500
0.512500
0.337500
0.195833
0.525000
0.529167
0.520833
0.525000
0.495833
0.525000
0.500000
0.520833
0.516667
0.512500
0.495833
0.516667
0.491667
0.516667
0.491667
0.516667
0.487500
0.512500
0.487500
0.512500
0.483333
0.512500
0.483333
0.508333
0.483333
0.491667
0.491667
0.454167
0.545833
0.479167
0.508333
0.479167
0.487500
0.491667
0.420833
0.458333
0.570833
0.479167
0.491667
0.483333
0.500000
0.479167
0.500000
0.420833
0.533333
0.500000
0.475000
0.479167
0.483333
0.483333
0.479167
0.483333
0.479167
0.483333
0.479167
0.483333
0.483333
0.483333
0.479167
0.483333
0.483333
0.483333
0.479167
0.483333
0.483333
0.479167
0.483333
0.483333
0.483333
0.479167
0.483333
0.479167
0.483333
0.483333
0.483333
0.479167
0.483333
0.479167
0.483333
0.483333
0.479167
0.479167
0.483333
0.479167
0.483333
0.479167
0.483333
0.479167
0.483333
0.479167
0.479167
0.479167
0.483333
0.479167
0.479167
0.479167
0.479167
0.479167
0.479167
0.479167
0.479167
0.479167
0.479167
0.479167
0.479167
0.479167
0.479167
0.483333
0.479167
0.479167
0.479167
0.479167
0.479167
0.483333
0.479167
0.479167
0.479167
0.483333
0.479167
0.483333
0.483333
0.479167
0.479167
0.483333
0.483333
0.483333
0.479167
0.483333
0.483333
0.483333
0.487500
0.483333
0.429167
0.537500
0.487500
0.483333
0.483333
0.479167
0.487500
0.483333
0.483333
0.483333
0.483333
0.483333
0.487500
0.483333
0.483333
0.483333
0.483333
0.487500
0.483333
0.483333
0.483333
0.483333
0.520833
0.450000
0.479167
0.483333
0.483333
0.483333
0.483333
0.483333
0.620833
0.341667
0.475000
0.491667
0.483333
0.483333
0.483333
0.333333
0.633333
0.487500
0.483333
0.487500
0.483333
0.487500
0.566667
0.404167
0.491667
0.483333
0.975000
0.483333
0.512500
0.475000
0.491667
0.487500
0.491667
0.487500
0.995833
0.491667
0.491667
0.491667
0.491667
0.516667
0.483333
0.495833
0.491667
0.495833
0.495833
0.512500
0.487500
0.516667
0.412500
0.575000
0.491667
0.520833
0.487500
0.500000
0.495833
0.520833
0.491667
0.516667
0.487500
0.520833
0.487500
0.516667
0.487500
0.516667
0.487500
0.516667
0.487500
0.520833
0.487500
0.516667
0.491667
0.504167
0.516667
0.491667
0.516667
0.487500
0.500000
0.520833
0.491667
0.495833
0.500000
0.520833
0.487500
0.520833
0.491667
0.500000
0.500000
0.525000
0.491667
0.520833
0.491667
0.504167
0.520833
0.491667
0.520833
0.491667
0.500000
0.520833
0.491667
0.520833
0.487500
0.520833
0.487500
0.516667
0.487500
0.500000
0.495833
0.520833
0.487500
0.516667
0.483333
0.500000
0.500000
0.500000
0.495833
0.495833
0.500000
0.500000
0.500000
0.495833
0.500000
0.495833
0.495833
0.516667
0.491667
0.495833
0.404167
0.587500
0.491667
0.504167
0.500000
0.500000
0.500000
0.500000
0.500000
0.504167
0.462500
0.533333
0.504167
0.504167
0.504167
0.504167
0.504167
0.504167
0.504167
0.508333
0.525000
0.495833
0.525000
0.491667
0.525000
0.495833
0.525000
0.495833
0.520833
0.495833
0.525000
0.495833
0.525000
0.495833
0.525000
0.495833
0.525000
0.495833
0.520833
0.495833
0.525000
0.495833
0.525000
0.495833
0.520833
0.495833
0.520833
0.495833
0.525000
0.491667
0.525000
0.495833
0.520833
0.491667
0.520833
0.495833
0.520833
0.495833
0.520833
0.491667
0.520833
0.491667
0.520833
0.491667
0.520833
0.491667
0.516667
0.495833
0.520833
0.491667
0.520833
0.487500
0.520833
0.491667
0.525000
0.491667
0.520833
0.491667
0.504167
0.520833
0.491667
0.504167
0.520833
0.487500
0.520833
0.483333
0.516667
0.491667
0.516667
0.487500
0.512500
0.487500
0.512500
0.487500
0.512500
0.487500
0.512500
0.483333
0.512500
0.487500
0.512500
0.483333
0.512500
0.483333
0.379167
0.608333
0.491667
0.495833
0.495833
0.512500
0.483333
0.512500
0.479167
0.495833
0.512500
0.483333
0.512500
0.483333
0.491667
0.495833
0.512500
0.483333
0.495833
0.491667
0.495833
0.495833
0.516667
0.487500
0.495833
0.500000
0.500000
0.500000
0.520833
0.491667
0.500000
0.504167
0.504167
0.400000
0.470833
0.608333
0.500000
0.508333
0.504167
0.525000
0.491667
0.520833
0.491667
0.375000
0.625000
0.495833
0.525000
0.491667
0.520833
0.487500
0.520833
0.491667
0.520833
0.491667
0.516667
0.491667
0.312500
0.612500
0.566667
0.520833
0.491667
0.504167
0.525000
0.495833
0.525000
0.491667
0.504167
0.504167
0.529167
0.495833
0.525000
0.491667
0.508333
0.504167
0.508333
0.529167
0.495833
0.508333
0.508333
0.529167
0.500000
0.525000
0.495833
0.508333
0.504167
0.529167
0.495833
0.529167
0.491667
0.529167
0.500000
0.529167
0.500000
0.537500
0.529167
0.508333
0.533333
0.508333
0.537500
0.508333
0.537500
0.508333
0.537500
0.525000
0.504167
0.533333
0.504167
0.529167
0.504167
0.533333
0.495833
0.533333
0.500000
0.529167
0.500000
0.525000
0.495833
0.529167
0.500000
0.529167
0.495833
0.529167
0.500000
0.529167
0.495833
0.529167
0.500000
0.529167
0.500000
0.529167
0.500000
0.529167
0.500000
0.537500
0.500000
0.533333
0.500000
0.533333
0.500000
0.529167
0.500000
0.529167
0.500000
0.525000
0.500000
0.529167
0.495833
0.525000
0.500000
0.529167
0.495833
0.525000
0.495833
0.508333
0.525000
0.500000
0.504167
0.508333
0.508333
0.508333
0.504167
0.504167
0.504167
0.508333
0.508333
0.504167
0.504167
0.504167
0.504167
0.525000
0.495833
0.500000
0.504167
0.525000
0.491667
0.520833
0.491667
0.504167
0.525000
0.495833
0.520833
0.416667
0.583333
0.500000
0.520833
0.495833
0.500000
0.504167
0.525000
0.491667
0.504167
0.516667
0.491667
0.520833
0.487500
0.520833
0.491667
0.520833
0.466667
0.541667
0.491667
0.500000
0.504167
0.520833
0.491667
0.520833
0.491667
0.508333
0.516667
0.495833
0.500000
0.504167
0.520833
0.491667
1.012500
0.520833
0.491667
0.525000
0.495833
0.520833
0.491667
0.520833
0.495833
0.520833
0.491667
0.520833
0.495833
0.520833
0.491667
0.520833
0.491667
0.525000
0.495833
0.525000
0.491667
0.525000
0.495833
0.525000
0.495833
0.525000
0.495833
