0.512500
0.508333
0.508333
0.508333
0.237500
0.266667
0.512500
0.504167
0.504167
0.508333
0.504167
0.504167
0.508333
0.512500
0.508333
0.508333
0.504167
0.508333
0.508333
0.520833
0.512500
0.512500
0.508333
0.508333
0.512500
0.525000
0.508333
0.516667
0.508333
0.516667
0.512500
0.512500
0.295833
0.212500
0.512500
0.512500
0.512500
0.520833
0.512500
0.508333
0.516667
0.516667
0.516667
0.520833
0.512500
0.512500
0.516667
0.508333
0.508333
0.512500
0.512500
0.512500
0.508333
0.512500
0.508333
0.508333
0.512500
0.516667
0.508333
0.512500
0.508333
0.516667
0.512500
0.512500
0.512500
0.504167
0.512500
0.512500
0.512500
0.508333
0.508333
0.504167
0.508333
0.512500
0.508333
0.508333
0.504167
0.508333
0.512500
0.504167
0.641667
0.383333
0.512500
0.525000
0.512500
0.516667
0.516667
0.508333
0.512500
0.512500
0.520833
0.512500
0.512500
0.516667
0.516667
0.512500
0.512500
0.508333
0.512500
0.508333
0.508333
0.512500
0.508333
0.504167
0.512500
0.512500
0.512500
0.508333
0.516667
0.512500
0.508333
0.516667
0.512500
0.508333
0.508333
0.512500
0.512500
0.504167
0.512500
0.508333
0.508333
0.520833
0.512500
0.512500
0.512500
0.512500
0.516667
0.516667
0.512500
0.516667
0.508333
0.512500
0.520833
0.520833
0.516667
0.516667
0.520833
0.516667
0.512500
0.512500
0.516667
0.516667
0.508333
0.512500
0.512500
0.220833
0.291667
0.512500
0.512500
0.504167
0.508333
0.504167
0.512500
0.512500
0.504167
0.508333
0.512500
0.508333
0.516667
0.512500
0.508333
0.512500
0.504167
0.512500
0.520833
0.516667
0.512500
0.516667
0.512500
0.516667
0.516667
0.516667
0.512500
0.516667
0.516667
0.516667
0.512500
0.516667
0.516667
0.508333
0.512500
0.512500
0.516667
0.512500
0.516667
0.516667
0.520833
0.508333
0.516667
0.512500
0.525000
0.516667
0.516667
0.512500
0.512500
0.516667
0.516667
0.520833
0.508333
0.516667
0.516667
0.525000
0.529167
0.525000
0.520833
0.520833
0.516667
0.525000
0.525000
0.516667
0.520833
0.512500
0.520833
0.520833
0.516667
0.508333
0.520833
0.520833
0.512500
1.025000
0.512500
0.516667
0.600000
0.433333
0.512500
0.516667
0.512500
0.516667
0.512500
0.512500
0.516667
0.508333
0.512500
0.508333
0.516667
0.508333
0.520833
0.512500
0.512500
0.512500
0.516667
0.512500
0.512500
0.512500
0.508333
0.512500
0.516667
0.508333
0.512500
0.520833
0.512500
0.516667
0.512500
0.520833
0.516667
0.520833
0.512500
0.512500
0.512500
0.516667
0.516667
0.512500
0.516667
0.508333
0.508333
0.512500
0.512500
0.516667
0.512500
0.508333
0.516667
0.520833
0.516667
0.520833
0.516667
0.520833
0.516667
0.520833
0.516667
0.520833
0.512500
0.516667
0.512500
0.512500
0.512500
0.512500
0.512500
0.512500
0.512500
0.508333
0.508333
0.508333
0.508333
0.508333
0.508333
0.512500
0.508333
0.508333
0.512500
0.516667
0.516667
0.512500
0.512500
0.512500
0.512500
0.516667
0.516667
0.516667
0.520833
0.516667
0.508333
0.516667
0.508333
0.508333
0.516667
0.504167
0.516667
0.512500
0.508333
0.516667
0.516667
0.512500
0.516667
0.512500
0.512500
1.020833
0.516667
0.516667
0.508333
0.520833
0.516667
0.516667
0.516667
0.512500
1.037500
0.516667
0.516667
0.516667
0.512500
0.516667
0.516667
0.516667
0.516667
0.516667
0.533333
0.533333
0.529167
0.529167
0.520833
0.512500
0.520833
0.512500
0.520833
0.520833
0.516667
0.516667
0.508333
0.445833
0.566667
0.275000
0.241667
0.508333
0.508333
0.504167
0.504167
0.504167
0.504167
0.504167
0.504167
0.500000
0.508333
0.504167
0.512500
0.512500
0.512500
0.512500
0.512500
0.520833
0.516667
0.520833
0.516667
0.512500
0.516667
0.512500
0.512500
0.508333
0.512500
0.516667
0.516667
0.512500
0.508333
0.512500
0.512500
0.508333
0.516667
0.512500
0.516667
0.512500
0.516667
0.525000
0.516667
0.520833
0.520833
0.520833
0.512500
0.516667
0.516667
0.508333
0.504167
0.512500
0.504167
0.504167
0.504167
0.508333
1.008333
0.508333
0.508333
0.508333
0.508333
0.508333
0.512500
0.508333
0.512500
0.508333
0.512500
0.512500
0.520833
0.516667
0.512500
0.516667
0.516667
0.516667
0.516667
0.516667
0.516667
0.516667
0.516667
0.520833
0.516667
0.520833
0.520833
0.520833
0.525000
0.525000
0.520833
0.516667
0.529167
0.520833
0.520833
0.520833
0.516667
0.525000
0.395833
0.641667
0.516667
0.525000
0.520833
0.512500
0.516667
0.520833
0.512500
0.516667
0.516667
0.516667
0.512500
0.512500
0.516667
0.516667
0.516667
0.508333
0.520833
0.520833
0.516667
0.512500
0.516667
0.512500
0.525000
0.516667
0.520833
0.520833
0.516667
0.525000
0.537500
0.537500
0.529167
0.525000
0.533333
0.529167
0.512500
0.520833
0.516667
0.520833
0.525000
0.512500
0.512500
0.516667
0.512500
0.516667
0.508333
0.512500
0.512500
0.308333
0.208333
0.516667
0.512500
0.520833
0.520833
0.512500
0.516667
0.525000
0.516667
0.520833
0.512500
0.516667
0.525000
0.525000
0.520833
0.516667
0.516667
0.529167
0.525000
0.512500
0.520833
0.525000
0.520833
0.537500
0.525000
0.525000
0.520833
0.529167
0.533333
0.529167
0.529167
0.529167
1.062500
0.533333
0.529167
0.525000
0.525000
0.525000
0.525000
0.529167
0.525000
0.520833
0.525000
0.525000
0.525000
0.533333
0.525000
1.066667
0.525000
0.529167
0.529167
0.529167
0.525000
0.516667
0.512500
0.516667
0.516667
0.512500
0.516667
0.516667
0.516667
0.520833
0.512500
0.220833
0.295833
0.508333
0.516667
0.820833
0.204167
0.508333
0.516667
0.512500
0.508333
0.508333
0.508333
0.508333
0.512500
0.504167
0.504167
0.512500
0.312500
0.195833
0.508333
0.512500
0.504167
0.504167
0.504167
0.504167
0.512500
0.508333
0.504167
0.508333
0.508333
0.504167
0.504167
0.508333
0.504167
0.504167
0.504167
1.012500
0.508333
0.512500
1.012500
0.516667
0.508333
0.508333
0.516667
0.520833
0.516667
0.525000
0.520833
0.525000
1.041667
0.520833
0.520833
0.516667
1.037500
0.525000
0.520833
0.520833
1.041667
0.520833
0.520833
0.516667
0.520833
0.520833
0.516667
0.516667
0.516667
0.512500
0.516667
1.029167
0.516667
0.516667
0.516667
1.020833
0.512500
0.516667
1.033333
1.029167
0.508333
1.025000
0.512500
0.512500
1.025000
0.512500
1.541667
0.504167
0.512500
1.045833
0.512500
0.516667
0.520833
0.520833
1.041667
0.791667
0.250000
0.520833
0.520833
0.520833
0.520833
0.512500
0.516667
0.512500
0.512500
0.512500
0.516667
0.512500
0.525000
1.037500
0.525000
0.520833
0.525000
0.512500
0.516667
0.520833
0.520833
0.516667
1.029167
0.512500
0.520833
0.516667
0.508333
0.512500
0.512500
0.508333
0.508333
0.504167
0.508333
0.508333
0.508333
0.512500
0.508333
0.512500
0.508333
0.508333
0.516667
0.508333
0.512500
0.508333
0.508333
0.504167
0.508333
0.508333
1.000000
0.500000
0.504167
0.500000
0.508333
0.220833
0.483333
0.791667
0.495833
1.004167
0.508333
0.995833
0.995833
0.991667
1.495833
1.500000
0.495833
0.500000
0.995833
0.500000
0.995833
0.991667
0.495833
0.500000
0.500000
0.500000
0.500000
0.400000
0.600000
1.000000
0.495833
0.504167
0.500000
0.495833
0.500000
0.504167
0.504167
0.500000
0.508333
0.508333
0.508333
0.504167
0.504167
0.508333
0.504167
0.504167
0.500000
0.512500
0.500000
0.508333
0.500000
0.504167
0.504167
0.500000
0.504167
0.504167
0.504167
0.500000
1.000000
0.508333
0.500000
0.500000
0.500000
0.504167
0.500000
0.495833
0.495833
0.495833
0.495833
0.491667
0.491667
0.704167
0.283333
0.491667
0.487500
0.491667
0.491667
0.325000
0.645833
0.487500
0.487500
0.491667
0.487500
0.487500
0.487500
0.483333
0.491667
0.487500
0.487500
0.491667
0.487500
0.487500
0.491667
0.491667
0.487500
0.491667
0.487500
0.495833
0.491667
0.491667
0.487500
0.491667
0.441667
0.545833
0.500000
0.500000
0.495833
0.500000
0.495833
0.491667
0.495833
0.500000
0.491667
0.500000
0.500000
0.491667
0.495833
0.491667
0.495833
0.491667
0.487500
0.487500
0.491667
0.487500
0.487500
0.487500
0.487500
0.483333
0.491667
0.491667
0.487500
0.495833
0.487500
0.491667
0.500000
0.495833
0.500000
0.504167
0.508333
0.504167
0.500000
0.504167
0.508333
0.504167
0.508333
0.504167
0.504167
0.500000
0.504167
0.504167
0.504167
0.500000
0.500000
0.504167
0.504167
0.504167
0.500000
0.504167
0.504167
0.504167
0.500000
0.500000
0.500000
0.500000
0.500000
0.500000
0.495833
0.500000
0.495833
0.500000
0.491667
0.495833
0.495833
0.495833
0.491667
0.987500
0.491667
0.495833
0.495833
0.491667
0.495833
0.495833
0.500000
0.500000
0.495833
0.500000
0.500000
0.504167
0.495833
0.504167
0.504167
0.504167
0.500000
0.504167
0.504167
0.504167
0.500000
0.512500
0.504167
0.508333
0.508333
0.504167
0.508333
0.508333
0.512500
0.508333
0.508333
0.508333
0.512500
1.012500
0.920833
0.095833
0.504167
0.508333
0.512500
0.504167
0.500000
0.508333
0.500000
1.008333
0.504167
0.504167
0.500000
0.500000
0.500000
0.504167
0.500000
0.500000
0.504167
0.500000
0.500000
0.504167
0.500000
0.495833
0.500000
0.500000
0.495833
0.495833
0.500000
0.495833
0.500000
0.504167
0.500000
0.987500
0.508333
0.504167
0.495833
0.504167
0.500000
0.495833
0.504167
0.495833
0.500000
0.500000
0.500000
0.504167
0.500000
0.504167
0.500000
0.500000
0.500000
0.504167
0.504167
0.500000
0.500000
0.500000
0.495833
0.495833
0.495833
0.495833
0.987500
0.500000
0.983333
0.495833
0.495833
0.991667
0.987500
0.487500
0.495833
0.487500
0.487500
0.487500
0.487500
0.487500
0.975000
0.491667
0.483333
0.245833
0.237500
0.970833
0.483333
0.733333
0.904167
0.779167
0.966667
0.958333
1.450000
1.445833
1.433333
0.479167
0.470833
0.958333
0.479167
0.475000
1.250000
0.175000
0.566667
0.770833
0.575000
0.479167
0.483333
0.966667
0.479167
0.479167
0.383333
0.091667
0.258333
0.233333
0.512500
0.437500
0.475000
0.479167
0.479167
0.466667
0.475000
0.483333
0.475000
0.479167
0.804167
0.333333
0.779167
0.600000
0.470833
0.875000
0.591667
1.045833
0.241667
0.479167
1.087500
0.345833
0.470833
0.950000
0.483333
0.479167
0.958333
0.483333
0.470833
0.483333
0.479167
0.687500
0.266667
0.483333
0.466667
0.520833
0.904167
0.483333
0.862500
1.033333
0.920833
1.120833
0.329167
0.475000
1.383333
0.295833
0.225000
0.475000
0.370833
0.516667
0.104167
0.908333
0.720833
0.595833
0.708333
0.995833
1.254167
0.470833
1.220833
1.625000
1.429167
0.487500
0.470833
0.483333
1.487500
1.091667
2.041667
1.066667
0.583333
1.629167
0.304167
0.962500
0.504167
0.483333
0.387500
0.583333
0.495833
0.950000
0.720833
0.300000
0.979167
0.566667
0.725000
0.654167
0.962500
0.487500
0.479167
0.487500
0.291667
0.833333
1.125000
0.541667
0.925000
1.070833
0.200000
0.291667
0.483333
0.970833
0.479167
0.487500
0.479167
0.587500
0.391667
0.483333
1.458333
0.708333
0.683333
0.562500
0.729167
0.433333
1.262500
0.487500
0.420833
0.350000
0.279167
0.270833
