0.520833
0.529167
0.520833
0.512500
0.516667
0.516667
0.516667
0.520833
0.512500
0.516667
0.525000
0.525000
0.520833
0.520833
0.525000
0.525000
0.529167
0.520833
0.529167
0.529167
0.529167
0.545833
0.533333
0.533333
0.529167
0.541667
0.545833
0.533333
0.533333
0.529167
0.529167
0.537500
0.525000
0.529167
0.525000
0.525000
0.529167
0.525000
0.520833
0.525000
0.525000
0.533333
0.529167
0.529167
0.533333
0.529167
0.537500
0.525000
0.533333
0.525000
0.529167
0.533333
0.520833
0.529167
0.525000
0.529167
0.525000
0.516667
0.529167
0.525000
0.537500
0.516667
0.529167
0.525000
0.529167
0.520833
0.516667
0.516667
0.520833
0.520833
0.508333
0.525000
0.516667
0.520833
0.512500
0.516667
0.508333
0.512500
0.512500
0.504167
0.508333
0.508333
0.520833
0.516667
0.512500
0.520833
0.520833
0.529167
0.529167
0.516667
0.525000
0.529167
0.525000
0.537500
0.541667
0.525000
0.533333
0.516667
0.533333
0.525000
0.525000
0.525000
0.520833
0.516667
0.520833
0.512500
0.516667
0.520833
0.516667
0.520833
0.516667
0.525000
0.541667
0.533333
0.533333
0.537500
0.545833
0.554167
0.554167
0.554167
0.558333
0.566667
0.579167
0.579167
0.575000
0.566667
0.579167
0.583333
0.583333
0.579167
0.570833
0.575000
0.575000
0.570833
0.566667
0.562500
0.558333
0.566667
0.558333
0.558333
0.550000
0.550000
0.554167
0.541667
0.554167
0.545833
0.545833
0.550000
0.541667
0.545833
0.550000
0.545833
0.541667
0.550000
0.550000
0.545833
0.545833
0.550000
0.545833
0.550000
0.545833
0.550000
0.545833
0.541667
0.545833
0.545833
0.541667
0.541667
0.537500
0.541667
0.533333
0.537500
0.529167
0.533333
0.537500
0.537500
0.533333
0.533333
0.533333
0.541667
0.541667
0.533333
0.533333
0.533333
0.537500
0.541667
0.541667
0.529167
0.533333
0.537500
0.545833
0.537500
0.537500
0.537500
0.541667
0.545833
0.541667
0.529167
0.533333
0.541667
0.541667
0.541667
0.537500
0.537500
0.545833
0.545833
0.550000
0.537500
0.545833
0.541667
0.554167
0.541667
0.541667
0.533333
0.529167
0.525000
0.520833
0.525000
0.516667
0.525000
0.525000
0.516667
0.520833
0.525000
0.525000
0.533333
0.525000
0.525000
0.516667
0.520833
0.525000
0.525000
0.516667
0.529167
0.525000
0.537500
0.529167
0.537500
0.529167
0.545833
0.537500
0.533333
0.537500
0.537500
0.554167
0.541667
0.545833
0.541667
0.541667
0.545833
0.537500
0.541667
0.533333
0.545833
0.545833
0.537500
0.537500
0.533333
0.545833
0.545833
0.550000
0.541667
0.541667
0.537500
0.537500
0.529167
0.537500
0.529167
0.533333
0.529167
0.520833
0.533333
0.525000
0.533333
0.529167
0.525000
0.533333
0.537500
0.537500
0.529167
0.533333
0.529167
0.541667
0.533333
0.525000
0.537500
0.533333
0.545833
0.541667
0.533333
0.541667
0.545833
0.550000
0.537500
0.533333
0.533333
0.545833
0.545833
0.545833
0.545833
0.537500
0.533333
0.541667
0.537500
0.533333
0.529167
0.533333
0.541667
0.529167
0.533333
0.541667
0.541667
0.537500
0.537500
0.537500
0.545833
0.554167
0.545833
0.550000
0.545833
0.554167
0.558333
0.545833
0.554167
0.550000
0.562500
0.562500
0.558333
0.554167
0.566667
0.575000
0.558333
0.558333
0.550000
0.554167
0.554167
0.537500
0.545833
0.541667
0.550000
0.537500
0.537500
0.541667
0.541667
0.550000
0.537500
0.545833
0.533333
0.545833
0.537500
0.529167
0.537500
0.533333
0.537500
0.529167
0.529167
0.525000
0.533333
0.533333
0.520833
0.529167
0.525000
0.533333
0.525000
0.525000
0.520833
0.529167
0.520833
0.525000
0.516667
0.520833
0.425000
0.645833
0.554167
0.558333
0.558333
0.554167
0.558333
0.545833
0.545833
0.550000
0.558333
0.554167
0.558333
0.562500
0.566667
0.570833
0.562500
0.570833
0.566667
0.579167
0.575000
0.575000
0.570833
0.579167
0.587500
0.587500
0.579167
0.579167
0.587500
0.595833
0.583333
0.591667
0.591667
0.591667
0.587500
0.587500
0.591667
0.595833
0.600000
0.587500
0.583333
0.591667
0.600000
0.591667
0.587500
0.570833
0.579167
0.583333
0.570833
0.583333
0.570833
0.579167
0.570833
0.570833
0.566667
0.566667
0.570833
0.566667
0.558333
0.562500
0.558333
0.554167
0.566667
0.558333
0.554167
0.558333
0.545833
0.545833
0.541667
0.545833
0.558333
0.562500
0.575000
0.579167
0.595833
0.600000
0.608333
0.591667
0.587500
0.579167
0.583333
0.608333
0.587500
0.608333
0.579167
0.575000
0.566667
0.558333
0.545833
0.537500
0.529167
0.529167
0.504167
0.529167
0.520833
0.541667
0.541667
0.604167
0.645833
0.750000
0.737500
0.725000
0.687500
0.641667
0.616667
0.600000
0.595833
0.595833
0.587500
0.579167
0.600000
0.608333
0.595833
0.587500
0.600000
0.604167
0.591667
0.583333
0.587500
0.595833
0.583333
0.575000
0.583333
0.575000
0.575000
0.570833
0.579167
0.579167
0.575000
0.570833
0.570833
0.579167
0.570833
0.575000
0.579167
0.579167
0.575000
0.575000
0.575000
0.579167
0.575000
0.579167
0.566667
0.579167
0.579167
0.579167
0.570833
0.575000
0.579167
0.570833
0.575000
0.566667
0.566667
0.575000
0.562500
0.575000
0.566667
0.570833
0.566667
0.570833
0.562500
0.575000
0.566667
0.562500
0.562500
0.562500
0.558333
0.558333
0.545833
0.541667
0.554167
0.550000
0.537500
0.545833
0.537500
0.554167
0.537500
0.537500
0.541667
0.537500
0.545833
0.541667
0.545833
0.537500
0.550000
0.550000
0.541667
0.545833
0.545833
0.545833
0.541667
0.533333
0.537500
0.541667
0.541667
0.533333
0.541667
0.533333
0.541667
0.541667
0.529167
0.533333
0.533333
0.545833
0.525000
0.529167
0.525000
0.533333
0.533333
0.516667
0.533333
0.525000
0.525000
0.529167
0.516667
0.525000
0.525000
0.533333
0.516667
0.520833
0.529167
0.533333
0.533333
0.525000
0.533333
0.537500
0.537500
0.529167
0.525000
0.525000
0.525000
0.525000
0.516667
0.525000
0.520833
0.525000
0.512500
0.520833
0.516667
0.529167
0.520833
0.516667
0.525000
0.525000
0.529167
0.516667
0.533333
0.525000
0.525000
0.516667
0.520833
0.520833
0.525000
0.525000
0.516667
0.529167
0.525000
0.533333
0.525000
0.516667
0.529167
0.520833
0.529167
0.516667
0.512500
0.516667
0.512500
0.512500
0.508333
0.508333
0.520833
0.520833
0.512500
0.529167
0.525000
0.533333
0.537500
0.541667
0.529167
0.537500
0.537500
0.537500
0.529167
0.508333
0.529167
0.504167
0.512500
0.495833
0.504167
0.504167
0.512500
0.504167
0.504167
0.512500
0.512500
0.520833
0.520833
0.525000
0.529167
0.537500
0.525000
0.545833
0.537500
0.562500
0.554167
0.550000
0.554167
0.562500
0.575000
0.566667
0.570833
0.562500
0.566667
0.566667
0.575000
0.566667
0.566667
0.566667
0.570833
0.575000
0.575000
0.562500
0.562500
0.570833
0.562500
0.566667
0.562500
0.562500
0.558333
0.554167
0.554167
0.554167
0.558333
0.554167
0.554167
0.554167
0.554167
0.566667
0.566667
0.562500
0.562500
0.575000
0.583333
0.583333
0.579167
0.575000
0.583333
0.591667
0.587500
0.583333
0.575000
0.575000
0.579167
0.583333
0.575000
0.570833
0.570833
0.575000
0.570833
0.570833
0.566667
0.562500
0.566667
0.558333
0.562500
0.562500
0.558333
0.558333
0.558333
0.554167
0.558333
0.558333
0.550000
0.545833
0.541667
0.550000
0.554167
0.537500
0.550000
0.533333
0.545833
0.550000
0.541667
0.541667
0.541667
0.550000
0.550000
0.545833
0.537500
0.541667
0.541667
0.545833
0.537500
0.537500
0.533333
0.541667
0.550000
0.541667
0.541667
0.541667
0.545833
0.550000
0.537500
0.533333
0.529167
0.533333
0.529167
0.529167
0.525000
0.529167
0.537500
0.525000
0.537500
0.529167
0.541667
0.545833
0.537500
0.545833
0.550000
0.550000
0.537500
0.545833
0.545833
0.554167
0.537500
0.545833
0.533333
0.541667
0.545833
0.541667
0.529167
0.533333
0.541667
0.537500
0.537500
0.525000
0.533333
0.533333
0.529167
0.533333
0.525000
0.541667
0.533333
0.533333
0.529167
0.533333
0.533333
0.537500
0.529167
0.533333
0.529167
0.545833
0.545833
0.529167
0.545833
0.537500
0.545833
0.545833
0.541667
0.541667
0.545833
0.554167
0.545833
0.545833
0.545833
0.554167
0.558333
0.554167
0.550000
0.545833
0.554167
0.558333
0.554167
0.554167
0.550000
0.550000
0.550000
0.545833
0.537500
0.545833
0.545833
0.545833
0.541667
0.533333
0.537500
0.541667
0.545833
0.533333
0.533333
0.537500
0.537500
0.537500
0.525000
0.525000
0.529167
0.529167
0.545833
0.533333
0.529167
0.533333
0.533333
0.545833
0.550000
0.529167
0.541667
0.533333
0.545833
0.545833
0.525000
0.541667
0.533333
0.541667
0.537500
0.533333
0.541667
0.545833
0.550000
0.554167
0.541667
0.545833
0.550000
0.558333
0.558333
0.550000
0.550000
0.554167
0.545833
0.533333
0.533333
0.525000
0.533333
0.529167
0.525000
0.520833
0.520833
0.525000
0.525000
0.508333
0.512500
0.512500
0.512500
0.516667
0.508333
0.520833
0.516667
0.529167
0.529167
0.520833
0.529167
0.541667
0.545833
0.529167
0.537500
0.537500
0.541667
0.529167
0.529167
0.537500
0.545833
0.529167
0.541667
0.533333
0.545833
0.545833
0.533333
0.533333
0.537500
0.537500
0.533333
0.537500
0.533333
0.537500
0.545833
0.537500
0.533333
0.541667
0.533333
0.537500
0.533333
0.525000
0.529167
0.533333
0.533333
0.529167
0.525000
0.529167
0.529167
0.533333
0.516667
0.533333
0.529167
0.533333
0.529167
0.520833
0.525000
0.529167
0.529167
0.520833
0.529167
0.516667
0.525000
0.533333
0.512500
0.525000
0.525000
0.525000
0.529167
0.525000
0.525000
0.525000
0.541667
0.541667
0.541667
0.525000
0.533333
0.525000
0.525000
0.525000
0.508333
0.520833
0.520833
0.520833
0.516667
0.512500
0.516667
0.516667
0.525000
0.512500
0.508333
0.516667
0.520833
0.512500
0.516667
0.500000
0.516667
0.516667
0.520833
0.529167
0.512500
0.529167
0.533333
0.541667
0.533333
0.533333
0.529167
0.545833
0.550000
0.554167
0.554167
0.554167
0.562500
0.570833
0.575000
0.575000
0.579167
0.583333
0.595833
0.595833
0.595833
0.595833
0.595833
0.608333
0.608333
0.595833
0.587500
0.583333
0.583333
0.566667
0.566667
0.558333
0.558333
0.558333
0.554167
0.545833
0.550000
0.550000
0.550000
0.545833
0.545833
0.541667
0.537500
0.541667
0.533333
0.533333
0.533333
0.537500
0.537500
0.533333
0.529167
0.537500
0.533333
0.529167
0.537500
0.533333
0.545833
0.712500
0.350000
0.533333
0.545833
0.554167
0.537500
0.550000
0.550000
0.550000
0.545833
0.541667
0.545833
0.554167
0.537500
0.554167
0.554167
0.554167
0.550000
0.550000
0.537500
0.550000
0.554167
0.545833
0.545833
0.541667
0.550000
0.558333
0.550000
0.550000
0.550000
0.554167
0.554167
0.550000
0.545833
0.545833
0.550000
0.558333
0.545833
0.541667
0.541667
0.545833
0.545833
0.550000
0.541667
0.541667
0.545833
0.545833
0.545833
0.545833
0.537500
0.545833
0.545833
0.541667
0.533333
0.541667
0.537500
0.545833
0.537500
0.550000
0.541667
0.545833
0.550000
0.541667
0.541667
0.537500
0.541667
0.537500
0.537500
0.529167
0.533333
0.537500
0.541667
0.533333
0.533333
0.525000
0.525000
0.520833
0.520833
0.508333
0.520833
