0.345833
0.337500
0.316667
0.337500
0.375000
0.541667
0.270833
0.362500
0.366667
0.354167
0.366667
0.366667
0.354167
0.575000
0.304167
1.662500
1.091667
1.200000
0.983333
0.879167
1.154167
1.333333
1.025000
1.158333
0.608333
0.758333
0.708333
1.729167
0.970833
0.900000
0.616667
0.641667
0.383333
0.529167
1.100000
0.475000
0.350000
0.529167
0.966667
0.933333
0.954167
1.116667
0.920833
0.775000
0.575000
0.312500
1.083333
0.983333
0.470833
0.341667
0.320833
0.308333
0.287500
0.508333
0.895833
1.395833
0.470833
0.358333
0.333333
0.312500
0.370833
0.370833
0.337500
0.341667
0.362500
0.354167
0.350000
0.358333
0.358333
0.350000
0.358333
0.366667
0.358333
0.350000
1.633333
0.470833
0.366667
0.341667
0.329167
0.375000
0.375000
0.341667
0.354167
0.375000
0.362500
0.358333
0.370833
0.362500
0.366667
0.366667
0.366667
0.370833
0.366667
0.370833
0.366667
0.366667
0.370833
0.370833
0.375000
0.366667
0.370833
1.420833
0.470833
0.370833
0.341667
0.370833
0.387500
0.358333
0.358333
0.370833
0.375000
0.366667
0.362500
0.375000
0.379167
0.375000
0.370833
0.370833
0.866667
1.650000
0.470833
0.366667
0.329167
0.333333
0.400000
0.375000
0.362500
0.362500
0.366667
0.370833
0.366667
0.375000
0.366667
0.375000
1.579167
0.475000
0.366667
0.333333
0.370833
0.391667
0.358333
0.362500
0.366667
0.370833
0.366667
0.366667
0.375000
1.570833
0.470833
0.370833
0.333333
0.320833
0.316667
1.270833
1.087500
0.454167
1.400000
0.458333
0.370833
1.554167
0.466667
0.358333
0.333333
0.316667
0.395833
0.379167
0.345833
0.333333
0.383333
0.387500
0.366667
0.370833
0.837500
0.341667
1.208333
0.466667
0.366667
0.337500
0.362500
0.379167
0.358333
0.350000
0.375000
0.379167
0.366667
1.579167
0.470833
0.366667
0.333333
0.337500
0.408333
0.383333
0.362500
0.712500
1.445833
0.470833
0.362500
0.329167
0.325000
0.408333
0.379167
0.362500
0.362500
0.370833
0.370833
0.370833
0.370833
1.570833
0.470833
0.370833
0.333333
0.358333
0.412500
0.412500
0.416667
0.420833
0.416667
0.416667
0.425000
0.416667
0.416667
0.416667
0.412500
0.412500
0.416667
0.412500
0.408333
0.429167
0.391667
1.891667
0.470833
0.362500
0.779167
0.562500
0.483333
0.512500
0.545833
0.491667
0.479167
0.516667
0.520833
0.529167
0.475000
0.533333
0.512500
0.516667
0.487500
0.533333
0.537500
0.520833
0.350000
0.620833
1.508333
1.183333
1.041667
1.016667
1.008333
0.995833
0.987500
0.358333
0.333333
0.645833
0.304167
0.358333
0.362500
0.345833
0.416667
0.387500
0.333333
0.325000
0.341667
0.354167
0.354167
0.345833
0.337500
0.358333
0.366667
0.337500
0.341667
0.620833
0.695833
1.704167
0.483333
0.366667
0.329167
0.300000
0.341667
0.391667
0.354167
0.337500
0.345833
0.358333
0.354167
0.354167
0.354167
0.354167
0.354167
0.358333
0.358333
0.354167
0.345833
0.362500
0.370833
0.354167
0.358333
0.362500
0.358333
0.358333
0.358333
0.362500
0.362500
0.362500
0.358333
0.362500
0.358333
0.362500
0.362500
0.362500
0.350000
0.362500
0.370833
0.362500
0.358333
0.362500
0.366667
0.362500
0.358333
0.362500
0.362500
0.366667
0.362500
0.366667
0.362500
0.358333
0.370833
0.366667
0.350000
0.366667
0.375000
0.366667
0.362500
0.366667
0.366667
0.366667
0.362500
0.370833
0.366667
0.366667
0.366667
0.366667
0.370833
0.366667
0.362500
0.366667
0.370833
0.370833
0.362500
0.366667
0.370833
0.370833
0.370833
0.370833
0.370833
0.362500
0.366667
0.370833
0.370833
0.366667
0.366667
0.370833
0.370833
0.370833
0.366667
0.370833
0.370833
0.366667
0.362500
0.375000
0.366667
0.370833
0.366667
0.370833
0.366667
0.370833
0.362500
0.370833
0.375000
0.362500
0.362500
0.370833
0.370833
0.362500
0.370833
0.366667
0.362500
0.370833
0.370833
0.362500
0.362500
0.370833
0.366667
0.362500
0.362500
0.366667
0.370833
0.358333
0.358333
0.370833
0.366667
0.358333
0.366667
0.370833
0.366667
0.362500
0.366667
0.362500
0.362500
0.366667
0.358333
0.362500
0.366667
0.358333
0.366667
0.370833
0.358333
0.362500
0.366667
0.358333
0.366667
0.366667
0.362500
0.366667
0.358333
0.358333
0.366667
0.366667
0.354167
0.366667
0.366667
0.358333
0.362500
0.366667
0.358333
0.362500
0.366667
0.358333
0.366667
0.370833
0.354167
0.370833
0.366667
0.362500
0.358333
0.366667
0.366667
0.362500
0.362500
0.358333
0.370833
0.366667
0.358333
0.362500
0.366667
0.366667
0.362500
0.362500
0.370833
0.362500
0.366667
0.366667
0.370833
0.350000
0.362500
0.375000
0.366667
0.366667
0.366667
0.362500
0.366667
0.370833
0.362500
0.366667
0.366667
0.366667
0.370833
0.362500
0.354167
0.370833
0.375000
0.366667
0.362500
0.366667
0.366667
0.366667
0.370833
0.366667
0.362500
0.366667
0.370833
0.358333
0.366667
0.375000
0.366667
0.362500
0.354167
0.366667
0.375000
0.366667
0.362500
0.370833
0.370833
0.362500
0.358333
0.370833
0.366667
0.354167
0.370833
0.366667
0.358333
0.366667
0.370833
0.354167
0.366667
0.370833
0.362500
0.362500
0.362500
0.366667
0.370833
0.358333
0.362500
0.366667
0.362500
0.362500
0.370833
0.362500
0.354167
0.362500
0.370833
0.354167
0.362500
0.370833
0.362500
0.362500
0.362500
0.370833
0.354167
0.366667
0.366667
0.354167
0.362500
0.370833
0.358333
0.366667
0.362500
0.366667
0.362500
0.354167
0.362500
0.366667
0.350000
0.366667
0.370833
0.350000
0.362500
0.366667
0.366667
0.354167
0.362500
0.366667
0.362500
0.358333
0.366667
0.358333
0.362500
0.362500
0.362500
0.362500
0.358333
0.366667
0.362500
0.362500
0.358333
0.366667
0.362500
0.354167
0.366667
0.366667
0.358333
0.362500
0.362500
0.362500
0.362500
0.362500
0.362500
0.362500
0.362500
0.362500
0.362500
0.362500
0.358333
0.366667
0.366667
0.350000
0.362500
0.370833
0.354167
0.366667
0.366667
0.354167
0.362500
0.366667
0.362500
0.366667
0.358333
0.362500
0.366667
0.354167
0.362500
0.370833
0.354167
0.366667
0.366667
0.354167
0.362500
0.362500
0.366667
0.362500
0.358333
0.366667
0.362500
0.354167
0.366667
0.366667
0.362500
0.362500
0.366667
0.362500
0.350000
0.362500
0.370833
0.350000
0.366667
0.366667
0.362500
0.354167
0.366667
0.366667
0.350000
0.366667
0.366667
0.350000
0.362500
0.366667
0.362500
0.362500
0.345833
0.358333
0.370833
0.350000
0.366667
0.370833
0.354167
0.325000
0.345833
0.375000
0.366667
0.358333
0.345833
0.333333
0.383333
0.387500
0.366667
0.358333
0.366667
0.358333
0.358333
0.362500
0.358333
0.362500
0.362500
0.358333
0.358333
0.366667
0.354167
0.358333
0.362500
0.358333
0.362500
0.366667
0.350000
0.362500
0.366667
0.358333
0.358333
0.362500
0.362500
0.362500
0.358333
0.362500
0.366667
0.362500
0.354167
0.358333
0.366667
0.362500
0.358333
0.362500
0.362500
0.362500
0.362500
0.358333
0.358333
0.362500
0.366667
0.354167
0.362500
0.366667
0.362500
0.358333
0.362500
0.366667
0.354167
0.362500
0.362500
0.358333
0.362500
0.366667
0.358333
0.362500
0.358333
0.366667
0.358333
0.358333
0.366667
0.358333
0.362500
0.362500
0.362500
0.358333
0.362500
0.366667
0.358333
0.358333
0.362500
0.362500
0.362500
0.362500
0.358333
0.362500
0.362500
0.350000
0.362500
0.366667
0.362500
0.366667
0.350000
0.362500
0.366667
0.354167
0.362500
0.362500
0.362500
0.362500
0.358333
0.358333
0.362500
0.354167
0.362500
0.362500
0.362500
0.362500
0.358333
0.362500
0.362500
0.350000
0.362500
0.362500
0.362500
0.362500
0.358333
0.366667
0.358333
0.358333
0.362500
0.358333
0.358333
0.362500
0.362500
0.358333
0.354167
0.362500
0.358333
0.362500
0.362500
0.354167
0.358333
0.366667
0.358333
0.358333
0.362500
0.362500
0.358333
0.358333
0.362500
0.362500
0.354167
0.362500
0.362500
0.362500
0.345833
0.366667
0.362500
0.358333
0.354167
0.362500
0.354167
0.366667
0.362500
0.350000
0.362500
0.366667
0.358333
0.362500
0.358333
0.358333
0.358333
0.362500
0.362500
0.358333
0.362500
0.358333
0.358333
0.362500
0.358333
0.362500
0.362500
0.345833
0.362500
0.370833
0.362500
0.358333
0.362500
0.354167
0.358333
0.362500
0.354167
0.362500
0.358333
0.358333
0.358333
0.350000
0.366667
0.362500
0.362500
0.366667
0.350000
0.350000
0.362500
0.362500
0.345833
0.333333
0.325000
0.341667
0.404167
1.804167
1.050000
1.370833
1.425000
0.979167
1.262500
0.987500
1.016667
0.979167
0.958333
0.958333
0.941667
0.941667
0.962500
0.929167
0.941667
0.933333
0.941667
0.933333
0.929167
0.933333
0.929167
0.929167
0.929167
0.925000
0.937500
0.925000
0.937500
0.937500
0.929167
0.937500
0.475000
0.225000
0.500000
0.258333
0.316667
0.312500
0.345833
0.341667
0.333333
0.316667
0.312500
0.645833
0.341667
0.387500
0.350000
0.350000
0.383333
0.370833
0.387500
0.395833
0.345833
0.350000
0.391667
0.383333
0.379167
0.404167
0.383333
0.366667
0.745833
0.287500
0.366667
0.670833
0.270833
0.300000
0.320833
0.370833
0.412500
0.366667
0.375000
0.358333
0.354167
0.362500
0.366667
0.341667
0.350000
0.379167
0.370833
0.345833
0.341667
0.395833
0.362500
0.337500
0.341667
0.362500
0.358333
0.554167
0.245833
0.350000
0.345833
0.345833
0.350000
0.620833
0.270833
0.345833
0.345833
0.354167
0.358333
0.375000
0.404167
0.354167
0.333333
0.358333
0.337500
0.304167
1.595833
1.158333
1.200000
1.129167
0.995833
1.000000
0.966667
0.966667
0.950000
0.950000
0.966667
0.929167
0.950000
0.941667
0.933333
0.941667
0.937500
0.929167
0.933333
0.933333
0.925000
0.925000
0.929167
0.479167
0.633333
0.545833
0.275000
0.320833
0.333333
0.370833
0.366667
0.350000
0.325000
0.383333
1.291667
1.191667
0.933333
0.579167
0.225000
0.337500
0.320833
0.500000
0.270833
1.566667
0.995833
0.983333
0.966667
0.466667
0.695833
0.683333
0.729167
1.845833
0.837500
0.887500
0.695833
0.637500
1.129167
0.908333
0.854167
1.387500
0.920833
0.833333
0.804167
0.825000
0.675000
0.695833
0.675000
0.716667
0.695833
0.708333
0.695833
0.691667
0.708333
0.708333
0.695833
0.704167
0.700000
0.695833
0.687500
0.716667
0.670833
0.729167
0.683333
0.716667
0.695833
0.704167
0.700000
0.700000
0.670833
0.287500
0.333333
0.350000
0.362500
0.358333
0.341667
0.362500
0.366667
0.350000
0.358333
0.362500
0.341667
0.362500
0.366667
0.354167
0.354167
0.358333
0.362500
0.362500
0.350000
0.362500
0.366667
0.350000
0.362500
0.366667
0.362500
0.350000
0.366667
0.362500
0.362500
0.362500
0.366667
0.354167
0.362500
0.366667
0.362500
0.362500
0.358333
0.362500
0.366667
0.366667
0.362500
0.362500
0.362500
0.362500
0.358333
0.370833
0.366667
0.358333
0.366667
0.362500
0.362500
0.366667
0.358333
0.366667
0.366667
0.366667
0.358333
0.362500
0.366667
0.362500
0.366667
0.362500
0.362500
0.362500
0.366667
0.362500
0.362500
0.358333
0.366667
0.366667
0.358333
0.366667
0.366667
0.358333
0.362500
0.366667
0.354167
0.366667
0.366667
0.358333
0.358333
0.362500
0.366667
0.362500
0.358333
0.366667
0.366667
0.362500
0.358333
0.362500
0.366667
0.358333
0.362500
0.362500
0.362500
0.362500
0.362500
0.362500
0.366667
0.362500
0.354167
0.366667
0.366667
0.354167
0.362500
0.370833
0.354167
0.362500
0.362500
0.362500
0.366667
0.362500
0.358333
0.362500
0.358333
0.366667
0.362500
0.362500
0.358333
0.358333
0.366667
0.366667
0.350000
0.366667
0.370833
0.354167
0.362500
0.366667
0.358333
0.362500
0.366667
0.350000
0.366667
0.370833
0.354167
0.366667
0.362500
0.362500
0.358333
0.362500
0.366667
0.354167
0.362500
0.366667
0.358333
0.362500
0.358333
0.362500
0.362500
0.366667
0.358333
0.358333
0.366667
0.362500
0.362500
0.362500
0.358333
0.362500
0.362500
0.362500
0.362500
0.358333
0.366667
0.350000
0.362500
0.370833
0.362500
0.358333
0.358333
0.362500
0.366667
0.358333
0.358333
0.362500
0.366667
0.358333
0.362500
0.362500
0.358333
0.362500
0.362500
0.358333
0.362500
0.366667
0.358333
0.362500
0.354167
0.366667
0.362500
0.354167
0.362500
0.362500
0.362500
0.366667
0.350000
0.366667
0.366667
0.350000
0.358333
0.366667
0.362500
0.354167
0.358333
0.366667
2.012500
0.929167
1.370833
1.020833
0.958333
0.941667
0.941667
0.929167
0.941667
0.925000
0.929167
0.929167
0.929167
0.916667
0.929167
0.920833
0.929167
0.916667
0.916667
0.916667
0.925000
0.908333
0.925000
0.920833
0.920833
0.916667
0.925000
0.920833
0.920833
0.358333
0.341667
1.412500
0.595833
0.245833
0.516667
0.266667
0.345833
0.370833
0.375000
0.404167
0.391667
0.350000
0.329167
0.458333
0.237500
0.350000
0.379167
0.575000
0.266667
0.558333
0.329167
0.404167
0.375000
0.341667
0.337500
0.345833
0.350000
0.350000
0.341667
0.350000
0.341667
0.333333
0.350000
0.237500
0.537500
0.325000
0.341667
0.375000
0.358333
0.345833
0.358333
0.358333
0.358333
0.362500
0.358333
0.391667
0.383333
0.337500
0.520833
0.812500
1.591667
0.470833
0.366667
0.325000
0.308333
0.333333
0.383333
0.350000
0.341667
0.383333
0.345833
0.366667
0.625000
0.537500
0.533333
0.487500
0.483333
0.520833
0.529167
