0.458333
0.466667
0.458333
0.454167
0.466667
0.454167
0.379167
0.316667
0.337500
0.237500
0.554167
0.458333
0.279167
0.625000
0.450000
0.454167
0.458333
0.458333
0.454167
0.454167
0.454167
0.350000
0.204167
0.362500
0.445833
0.450000
0.900000
0.458333
0.450000
0.445833
0.458333
0.445833
0.458333
0.441667
0.470833
0.616667
0.666667
0.291667
0.279167
0.812500
0.229167
0.212500
0.454167
0.441667
0.441667
0.450000
0.445833
0.445833
0.587500
0.204167
0.541667
0.445833
0.445833
0.445833
0.445833
0.441667
0.445833
0.441667
0.441667
0.450000
0.445833
0.437500
0.445833
0.441667
0.445833
0.445833
0.437500
0.445833
0.445833
0.445833
0.450000
0.441667
0.445833
0.445833
0.445833
0.450000
0.450000
0.354167
0.545833
0.450000
0.450000
0.633333
0.266667
0.450000
0.229167
0.670833
0.900000
0.450000
0.454167
0.450000
0.450000
0.454167
0.454167
0.458333
0.450000
0.454167
0.908333
0.908333
0.458333
0.458333
0.454167
0.458333
0.458333
0.454167
0.454167
0.458333
0.450000
0.454167
0.616667
0.183333
0.100000
0.454167
0.458333
0.458333
0.458333
0.458333
0.462500
0.462500
0.466667
0.466667
0.466667
0.462500
0.462500
0.466667
0.466667
0.470833
0.470833
0.483333
0.983333
0.491667
0.500000
0.479167
0.483333
0.491667
0.483333
0.495833
0.487500
0.500000
0.500000
0.500000
0.508333
0.508333
0.516667
0.516667
0.520833
0.512500
0.516667
0.754167
0.770833
0.566667
0.029167
0.700000
0.170833
0.720833
0.812500
0.375000
0.475000
0.475000
0.950000
0.470833
0.479167
0.475000
0.962500
0.954167
0.479167
0.483333
0.475000
0.945833
0.933333
0.462500
0.466667
0.629167
0.287500
0.458333
0.454167
0.454167
0.458333
0.437500
0.837500
0.529167
0.454167
0.900000
0.645833
1.166667
0.450000
0.383333
0.987500
1.308333
0.804167
1.425000
0.441667
0.887500
0.441667
0.445833
0.441667
1.333333
0.537500
0.791667
0.291667
0.595833
0.883333
0.445833
0.883333
0.441667
0.887500
0.441667
0.450000
0.591667
0.195833
0.820833
0.495833
0.333333
0.879167
0.145833
0.291667
0.550000
0.858333
1.025000
0.829167
1.004167
0.891667
0.895833
1.337500
0.291667
0.275000
0.325000
0.891667
0.445833
0.495833
0.025000
0.241667
0.450000
0.362500
0.654167
0.766667
0.579167
0.900000
0.895833
1.345833
1.345833
0.450000
0.450000
0.450000
0.633333
0.341667
0.116667
0.250000
0.454167
0.445833
0.250000
0.204167
0.579167
0.770833
0.904167
0.450000
0.458333
0.454167
0.454167
0.450000
0.454167
0.270833
0.637500
0.458333
0.458333
0.450000
0.445833
0.458333
0.916667
0.558333
0.316667
0.241667
0.429167
0.279167
0.904167
0.458333
0.454167
0.458333
0.904167
0.908333
0.908333
0.904167
0.458333
0.458333
1.370833
0.454167
0.916667
0.458333
1.370833
1.375000
0.920833
0.458333
0.462500
0.462500
0.462500
0.933333
0.458333
0.466667
0.920833
0.466667
0.458333
0.458333
0.466667
0.462500
0.175000
0.754167
0.462500
0.258333
0.204167
0.104167
0.775000
0.950000
0.454167
0.454167
0.245833
0.212500
0.512500
0.375000
0.491667
0.700000
0.666667
1.100000
0.729167
0.933333
0.929167
1.383333
1.383333
0.458333
0.458333
0.458333
0.462500
0.462500
0.462500
0.454167
0.462500
0.462500
0.275000
0.187500
0.925000
0.716667
0.216667
0.508333
0.412500
0.562500
0.950000
0.650000
0.358333
0.275000
0.462500
1.233333
0.150000
0.454167
0.458333
0.454167
0.912500
0.458333
0.345833
0.566667
0.266667
0.375000
0.945833
0.241667
0.816667
0.404167
0.483333
1.012500
0.454167
0.912500
0.450000
0.458333
0.458333
0.920833
0.470833
0.383333
0.525000
0.462500
0.466667
0.558333
0.166667
0.408333
0.237500
0.716667
0.745833
0.295833
0.575000
0.862500
0.912500
0.454167
0.904167
0.458333
0.912500
0.450000
0.458333
0.458333
0.916667
0.454167
0.458333
0.458333
0.925000
0.462500
0.458333
0.462500
0.450000
0.920833
0.462500
0.458333
0.458333
0.333333
0.420833
0.612500
0.458333
0.912500
0.450000
0.454167
0.458333
0.908333
0.904167
0.454167
0.641667
0.729167
0.508333
0.391667
0.995833
0.362500
0.454167
0.454167
0.604167
0.291667
0.454167
0.900000
0.900000
0.908333
0.575000
0.775000
0.791667
0.212500
1.258333
1.354167
0.454167
1.358333
0.262500
0.637500
0.900000
0.450000
0.454167
0.454167
0.916667
0.912500
0.458333
0.916667
0.920833
0.458333
0.462500
0.458333
0.920833
0.454167
0.462500
0.458333
0.458333
0.929167
0.920833
0.470833
0.475000
0.475000
0.941667
0.466667
0.908333
0.495833
0.362500
0.570833
0.483333
0.429167
0.554167
0.841667
0.916667
0.920833
0.920833
0.458333
0.308333
0.608333
0.458333
0.458333
0.462500
0.920833
0.462500
0.470833
0.466667
0.466667
0.466667
0.462500
0.466667
0.462500
0.933333
0.458333
0.466667
0.458333
0.466667
0.466667
0.462500
0.458333
0.462500
0.920833
0.212500
0.337500
0.375000
0.462500
0.462500
0.491667
0.620833
0.262500
0.279167
0.545833
0.562500
0.329167
0.591667
0.929167
0.929167
0.458333
0.466667
0.462500
0.925000
0.458333
0.462500
0.462500
0.925000
0.458333
0.458333
0.462500
0.920833
0.462500
0.458333
0.466667
0.466667
0.941667
0.466667
0.470833
0.470833
0.941667
0.462500
0.941667
0.941667
0.470833
0.937500
0.470833
0.429167
1.470833
0.950000
1.433333
1.887500
0.675000
0.425000
0.145833
0.629167
0.479167
0.895833
0.516667
0.929167
0.466667
0.933333
0.929167
1.400000
1.395833
1.416667
0.470833
0.470833
0.470833
1.404167
0.466667
0.470833
0.470833
0.937500
0.937500
0.475000
0.470833
0.950000
0.470833
0.470833
0.475000
0.479167
0.950000
0.475000
0.479167
0.479167
0.962500
0.950000
0.470833
0.475000
0.966667
0.595833
0.345833
0.495833
0.491667
0.979167
1.175000
0.266667
0.479167
0.366667
0.579167
0.475000
0.475000
0.466667
0.945833
0.470833
0.479167
0.475000
0.954167
0.475000
0.466667
0.475000
0.466667
0.937500
0.466667
0.466667
0.466667
0.466667
0.475000
0.466667
0.470833
0.475000
0.475000
0.470833
0.470833
0.470833
0.437500
0.500000
0.487500
0.483333
0.491667
0.483333
0.470833
0.475000
0.470833
0.479167
0.470833
0.462500
0.470833
0.470833
0.470833
0.479167
0.470833
0.470833
0.479167
0.475000
0.475000
0.479167
0.475000
0.475000
0.470833
0.491667
0.483333
0.491667
0.495833
0.487500
0.475000
0.479167
0.479167
0.475000
0.479167
0.475000
0.470833
0.479167
0.479167
0.483333
0.487500
0.475000
0.470833
0.479167
0.479167
0.483333
0.483333
0.666667
0.287500
0.370833
0.579167
0.479167
0.483333
0.475000
0.475000
0.475000
0.470833
0.479167
0.770833
0.058333
0.583333
0.479167
0.479167
0.470833
0.466667
0.470833
0.466667
0.462500
0.470833
0.462500
0.466667
0.466667
0.470833
0.466667
0.462500
0.475000
0.470833
0.475000
0.470833
0.466667
0.470833
0.470833
0.475000
0.470833
0.470833
0.475000
0.475000
0.475000
0.475000
0.475000
0.470833
0.475000
0.475000
0.437500
0.295833
0.216667
0.479167
0.470833
0.475000
0.475000
0.470833
0.283333
0.183333
0.475000
0.466667
0.470833
0.470833
0.470833
0.462500
0.466667
0.462500
0.466667
0.470833
0.458333
0.470833
0.466667
0.470833
0.479167
0.470833
0.470833
0.479167
0.479167
0.475000
0.470833
0.479167
0.479167
0.487500
0.479167
0.475000
0.483333
0.479167
0.479167
0.475000
0.475000
0.479167
0.479167
0.479167
0.479167
0.479167
0.475000
0.479167
0.479167
0.479167
0.479167
0.470833
0.475000
0.479167
0.479167
0.483333
0.479167
0.475000
0.483333
0.479167
0.487500
0.504167
0.500000
0.508333
0.500000
0.491667
0.495833
0.491667
0.487500
0.500000
0.500000
0.512500
0.500000
0.491667
0.487500
0.495833
0.491667
0.491667
0.495833
0.483333
0.483333
0.487500
0.491667
0.495833
0.491667
0.487500
0.495833
0.500000
0.495833
0.495833
0.487500
0.487500
0.483333
0.491667
0.491667
0.491667
0.487500
0.487500
0.495833
0.495833
0.500000
0.495833
0.491667
0.495833
0.500000
0.504167
0.512500
0.504167
0.495833
0.500000
0.504167
0.512500
0.508333
0.500000
0.495833
0.508333
0.520833
0.212500
0.233333
0.795833
0.287500
0.487500
0.495833
0.483333
0.487500
0.483333
0.475000
0.483333
0.479167
0.487500
0.491667
0.495833
0.483333
0.487500
0.487500
0.483333
0.491667
0.491667
0.491667
0.495833
0.491667
0.487500
0.379167
0.587500
0.487500
0.366667
0.604167
0.495833
0.487500
0.479167
0.483333
0.483333
0.662500
0.304167
0.479167
0.479167
0.483333
0.483333
0.483333
0.491667
0.487500
0.483333
0.487500
0.487500
0.487500
0.487500
0.483333
0.483333
0.491667
0.495833
0.504167
0.504167
0.504167
0.491667
0.495833
0.495833
0.495833
0.491667
0.495833
0.491667
0.483333
0.495833
0.500000
0.491667
0.504167
0.362500
0.129167
0.483333
0.483333
0.487500
0.479167
0.483333
0.425000
0.533333
0.487500
0.483333
0.475000
0.491667
0.495833
0.491667
0.487500
0.483333
0.479167
0.483333
0.483333
0.479167
0.479167
0.475000
0.475000
0.483333
0.479167
0.479167
0.491667
0.483333
0.479167
0.487500
0.504167
0.512500
0.508333
0.512500
0.516667
0.504167
0.495833
0.495833
0.495833
0.491667
0.491667
0.483333
0.425000
0.545833
0.504167
0.500000
0.500000
0.495833
0.495833
0.520833
0.533333
0.529167
0.516667
0.508333
0.508333
0.508333
0.500000
0.504167
0.495833
0.491667
0.495833
0.500000
0.495833
0.500000
0.491667
0.487500
0.500000
0.520833
0.541667
0.562500
0.550000
0.533333
0.529167
0.520833
0.525000
0.516667
0.504167
0.504167
0.504167
0.504167
0.504167
0.500000
0.495833
0.508333
0.504167
0.508333
0.512500
0.504167
0.495833
0.525000
0.554167
0.554167
0.550000
0.525000
0.516667
0.520833
0.325000
0.179167
0.670833
0.337500
0.495833
0.487500
0.487500
0.491667
0.483333
0.479167
0.483333
0.479167
0.487500
0.479167
0.479167
0.487500
0.695833
0.454167
0.316667
0.483333
0.483333
0.483333
0.487500
0.975000
0.491667
0.487500
0.487500
0.483333
0.475000
0.479167
0.479167
0.479167
0.358333
0.587500
0.495833
0.487500
0.491667
0.487500
0.491667
0.500000
0.483333
0.475000
0.479167
0.958333
0.470833
0.475000
0.479167
0.483333
0.479167
0.654167
0.295833
0.475000
0.504167
0.483333
0.487500
0.500000
0.495833
0.491667
0.487500
0.495833
0.495833
0.487500
0.483333
0.487500
0.491667
0.491667
0.491667
0.487500
0.495833
0.495833
0.504167
0.487500
0.487500
0.491667
0.487500
0.479167
0.479167
0.483333
0.479167
0.487500
0.483333
0.475000
0.662500
0.420833
0.862500
0.483333
0.483333
0.487500
0.983333
0.487500
0.483333
0.483333
0.475000
0.475000
0.470833
0.479167
0.475000
0.466667
0.466667
0.475000
0.475000
0.470833
0.466667
0.470833
0.470833
0.475000
0.458333
0.462500
0.470833
0.933333
0.466667
0.466667
0.462500
0.466667
0.458333
0.462500
0.466667
0.470833
0.466667
0.475000
0.466667
0.466667
0.466667
0.462500
0.337500
0.595833
0.470833
0.466667
0.466667
0.466667
0.466667
0.466667
0.937500
0.454167
0.458333
0.458333
0.462500
0.458333
0.450000
0.458333
0.454167
0.462500
0.462500
0.458333
0.470833
0.466667
0.466667
0.458333
0.466667
0.462500
0.470833
0.462500
0.458333
0.470833
0.466667
0.366667
0.562500
0.462500
0.462500
0.462500
0.937500
0.458333
0.466667
0.462500
0.475000
0.466667
0.462500
0.466667
0.466667
0.433333
0.487500
0.466667
0.466667
0.633333
0.291667
0.458333
0.458333
0.458333
