0.529167
0.533333
0.533333
0.529167
0.533333
0.529167
0.533333
0.533333
0.333333
0.670833
0.550000
0.295833
0.612500
0.566667
0.558333
0.537500
0.533333
0.533333
0.537500
0.533333
0.533333
0.533333
0.537500
0.537500
0.533333
0.533333
0.533333
0.533333
0.541667
0.533333
0.533333
0.533333
0.533333
0.533333
0.404167
0.625000
0.545833
0.537500
0.537500
0.533333
0.537500
0.533333
0.537500
0.533333
0.541667
0.537500
0.533333
0.537500
0.537500
0.537500
0.533333
0.537500
0.537500
0.545833
0.537500
0.533333
0.537500
0.533333
0.537500
0.537500
0.537500
0.533333
0.537500
0.537500
0.533333
0.533333
0.537500
0.541667
0.533333
0.537500
0.533333
0.537500
0.537500
0.533333
0.537500
0.545833
0.537500
0.537500
0.533333
0.537500
0.537500
0.533333
0.537500
0.537500
0.433333
0.279167
0.329167
0.558333
0.545833
0.545833
0.541667
0.541667
0.541667
0.537500
0.533333
0.533333
0.537500
0.533333
0.537500
0.537500
0.541667
0.537500
0.537500
0.537500
0.541667
0.537500
0.541667
0.537500
0.541667
0.537500
0.537500
0.541667
0.537500
0.537500
0.537500
0.337500
0.670833
0.554167
0.537500
0.537500
0.537500
0.533333
0.537500
0.537500
0.533333
0.541667
0.533333
0.537500
0.537500
0.537500
0.537500
0.533333
0.533333
0.541667
0.533333
0.533333
0.533333
0.537500
0.537500
0.537500
0.533333
0.537500
0.533333
0.537500
0.537500
0.533333
0.537500
0.541667
0.537500
0.533333
0.537500
0.533333
0.533333
0.533333
0.533333
0.541667
0.533333
0.533333
0.533333
0.533333
0.537500
0.533333
0.533333
0.541667
0.533333
0.537500
0.533333
0.537500
0.533333
0.533333
0.537500
0.537500
0.533333
0.537500
0.533333
0.533333
0.533333
0.537500
0.533333
0.533333
0.533333
0.537500
0.533333
0.533333
0.537500
0.541667
0.537500
0.533333
0.533333
0.537500
0.533333
0.537500
0.533333
0.533333
0.533333
0.537500
0.533333
0.533333
0.533333
0.537500
0.533333
0.533333
0.533333
0.533333
0.533333
0.533333
0.533333
0.537500
0.537500
0.533333
0.537500
0.533333
0.529167
0.537500
0.537500
0.533333
0.533333
0.533333
0.533333
0.537500
0.533333
0.533333
0.533333
0.533333
0.533333
0.533333
0.420833
0.616667
0.545833
0.533333
0.533333
0.533333
0.537500
0.533333
0.529167
0.529167
0.537500
0.529167
0.537500
0.533333
0.537500
0.533333
0.395833
0.629167
0.541667
0.529167
0.429167
0.612500
0.541667
0.533333
0.441667
0.600000
0.541667
0.537500
0.529167
0.533333
0.533333
0.537500
0.533333
0.533333
0.533333
0.533333
0.533333
0.537500
0.533333
0.533333
0.541667
0.541667
0.533333
0.537500
0.533333
0.533333
0.537500
0.533333
0.537500
0.541667
0.533333
0.533333
0.537500
0.533333
0.533333
0.533333
0.533333
0.537500
0.541667
0.533333
0.533333
0.533333
0.533333
0.537500
0.533333
0.533333
0.533333
0.533333
0.533333
0.541667
0.533333
0.529167
0.533333
0.533333
0.533333
0.533333
0.533333
0.533333
0.537500
0.533333
0.533333
0.533333
0.533333
0.533333
0.529167
0.541667
0.533333
0.529167
0.533333
0.533333
0.533333
0.529167
0.533333
0.533333
0.537500
0.537500
0.529167
0.533333
0.529167
0.533333
0.529167
0.529167
0.537500
0.533333
0.533333
0.533333
0.529167
0.533333
0.533333
0.533333
0.533333
0.537500
0.537500
0.529167
0.537500
0.533333
0.529167
0.537500
0.537500
0.529167
0.533333
0.533333
0.500000
0.570833
0.541667
0.525000
0.529167
0.529167
0.529167
0.529167
0.529167
0.533333
0.533333
0.537500
0.537500
0.537500
0.533333
0.537500
0.537500
0.541667
0.533333
0.537500
0.537500
0.537500
0.537500
0.537500
0.533333
0.537500
0.537500
0.533333
0.533333
0.537500
0.533333
0.533333
0.533333
0.533333
0.537500
0.533333
0.533333
0.533333
0.537500
0.533333
0.533333
0.533333
0.537500
0.533333
0.533333
0.533333
0.533333
0.533333
0.537500
0.533333
0.529167
0.533333
0.533333
0.533333
0.533333
0.533333
0.533333
0.533333
0.537500
0.533333
0.533333
0.533333
0.533333
0.533333
0.533333
0.533333
0.533333
0.533333
0.533333
0.533333
0.537500
0.533333
0.533333
0.533333
0.537500
0.533333
0.537500
0.533333
0.533333
0.529167
0.537500
0.533333
0.537500
0.533333
0.404167
0.629167
0.545833
0.533333
0.537500
0.537500
0.537500
0.529167
0.537500
0.533333
0.533333
0.537500
0.395833
0.625000
0.545833
0.529167
0.533333
0.533333
0.529167
0.533333
0.533333
0.533333
0.533333
0.533333
0.533333
0.533333
0.529167
0.537500
0.537500
0.533333
0.529167
0.533333
0.529167
0.529167
0.537500
0.533333
0.391667
0.625000
0.541667
0.533333
0.533333
0.529167
0.533333
0.533333
0.529167
0.533333
0.537500
0.533333
0.533333
0.529167
0.533333
0.537500
0.533333
0.529167
0.533333
0.529167
0.529167
0.537500
0.529167
0.533333
0.533333
0.408333
0.625000
0.541667
0.533333
0.537500
0.533333
0.533333
0.533333
0.533333
0.533333
0.533333
0.537500
0.533333
0.533333
0.529167
0.533333
0.529167
0.533333
0.533333
0.533333
0.533333
0.533333
0.529167
0.533333
0.533333
0.533333
0.529167
0.533333
0.537500
0.537500
0.533333
0.533333
0.533333
0.537500
0.533333
0.529167
0.533333
0.529167
0.537500
0.533333
0.533333
0.533333
0.533333
0.533333
0.533333
0.533333
0.537500
0.541667
0.533333
0.533333
0.537500
0.533333
0.533333
0.541667
0.533333
0.533333
0.533333
0.533333
0.533333
0.537500
0.533333
0.533333
0.533333
0.533333
0.537500
0.533333
0.533333
0.541667
0.533333
0.537500
0.533333
0.537500
0.533333
0.541667
0.533333
0.537500
0.541667
0.533333
0.533333
0.533333
0.533333
0.537500
0.533333
0.533333
0.533333
0.537500
0.541667
0.533333
0.533333
0.533333
0.533333
0.537500
0.537500
0.533333
0.537500
0.537500
0.541667
0.533333
0.308333
0.679167
0.566667
0.533333
0.529167
0.533333
0.533333
0.533333
0.537500
0.537500
0.537500
0.537500
0.537500
0.537500
0.537500
0.541667
0.537500
0.541667
0.541667
0.541667
0.541667
0.541667
0.541667
0.541667
0.541667
0.541667
0.537500
0.541667
0.541667
0.537500
0.541667
0.537500
0.537500
0.541667
0.537500
0.537500
0.541667
0.537500
0.541667
0.537500
0.537500
0.541667
0.304167
0.629167
0.570833
0.558333
0.541667
0.541667
0.537500
0.541667
0.537500
0.541667
0.533333
0.541667
0.537500
0.541667
0.537500
0.541667
0.537500
0.537500
0.541667
0.537500
0.545833
0.541667
0.541667
0.537500
0.541667
0.541667
0.541667
0.537500
0.545833
0.537500
0.541667
0.537500
0.537500
0.541667
0.541667
0.537500
0.541667
0.545833
0.541667
0.541667
0.541667
0.541667
0.541667
0.541667
0.537500
0.541667
0.541667
0.537500
0.537500
0.541667
0.537500
0.541667
0.541667
0.412500
0.625000
0.550000
0.537500
0.537500
0.541667
0.545833
0.541667
0.537500
0.537500
0.537500
0.537500
0.537500
0.537500
0.537500
0.545833
0.537500
0.537500
0.537500
0.537500
0.537500
0.537500
0.541667
0.541667
0.541667
0.537500
0.537500
0.541667
0.533333
0.541667
0.541667
0.537500
0.537500
0.537500
0.533333
0.537500
0.541667
0.537500
0.533333
0.537500
0.541667
0.537500
0.533333
0.537500
0.545833
0.537500
0.408333
0.625000
0.545833
0.537500
0.541667
0.537500
0.533333
0.537500
0.533333
0.533333
0.537500
0.537500
0.537500
0.533333
0.533333
0.537500
0.537500
0.533333
0.537500
0.541667
0.537500
0.533333
0.533333
0.537500
0.537500
0.533333
0.533333
0.533333
0.533333
0.533333
0.541667
0.529167
0.533333
0.533333
0.529167
0.537500
0.533333
0.537500
0.533333
0.533333
0.541667
0.537500
0.537500
0.533333
0.533333
0.533333
0.537500
0.533333
0.537500
0.533333
0.533333
0.533333
0.537500
0.533333
0.533333
0.533333
0.533333
0.537500
0.533333
0.533333
0.533333
0.529167
0.533333
0.537500
0.533333
0.533333
0.537500
0.533333
0.533333
0.533333
0.533333
0.533333
0.533333
0.533333
0.541667
0.533333
0.533333
0.533333
0.533333
0.533333
0.537500
0.533333
0.533333
0.529167
0.533333
0.533333
0.529167
0.541667
0.533333
0.533333
0.533333
0.533333
0.533333
0.529167
0.537500
0.541667
0.533333
0.533333
0.533333
0.533333
0.533333
0.533333
0.533333
0.533333
0.537500
0.533333
0.533333
0.533333
0.529167
0.533333
0.533333
0.541667
0.533333
0.529167
0.537500
0.541667
0.533333
0.533333
0.533333
0.533333
0.533333
0.537500
0.533333
0.533333
0.541667
0.529167
0.529167
0.529167
0.533333
0.533333
0.529167
0.537500
0.533333
0.537500
0.533333
0.537500
0.537500
0.537500
0.537500
0.537500
0.537500
0.541667
0.537500
0.408333
0.629167
0.541667
0.537500
0.445833
0.604167
0.541667
0.537500
0.533333
0.537500
0.537500
0.537500
0.533333
0.537500
0.533333
0.537500
0.533333
0.533333
0.537500
0.533333
0.533333
0.529167
0.537500
0.533333
0.529167
0.533333
0.533333
0.533333
0.537500
0.529167
0.537500
0.537500
0.533333
0.533333
0.533333
0.537500
0.533333
0.537500
0.533333
0.533333
0.533333
0.537500
0.533333
0.533333
0.537500
0.533333
0.537500
0.533333
0.537500
0.541667
0.533333
0.537500
0.533333
0.533333
0.537500
0.533333
0.541667
0.537500
0.533333
0.537500
0.533333
0.533333
0.408333
0.625000
0.545833
0.533333
0.537500
0.533333
0.537500
0.533333
0.537500
0.533333
0.545833
0.537500
0.533333
0.537500
0.533333
0.537500
0.412500
0.620833
0.545833
0.537500
0.537500
0.533333
0.533333
0.533333
0.537500
0.537500
0.533333
0.533333
0.537500
0.541667
0.533333
0.537500
0.533333
0.533333
0.537500
0.537500
0.537500
0.537500
0.537500
0.545833
0.537500
0.533333
0.537500
0.537500
0.537500
0.537500
0.537500
0.537500
0.537500
0.537500
0.541667
0.537500
0.537500
0.537500
0.537500
0.537500
0.537500
0.541667
0.541667
0.537500
0.537500
0.537500
0.541667
0.537500
0.537500
0.537500
0.545833
0.537500
0.537500
0.541667
0.533333
0.541667
0.400000
0.637500
0.550000
0.537500
0.541667
0.537500
0.541667
0.537500
0.541667
0.541667
0.545833
0.541667
0.541667
0.541667
0.541667
0.545833
0.537500
0.541667
0.537500
0.537500
0.541667
0.541667
0.541667
0.537500
0.541667
0.541667
0.537500
0.541667
0.545833
0.541667
0.541667
0.537500
0.537500
0.541667
0.541667
0.537500
0.537500
0.425000
0.625000
0.545833
0.541667
0.537500
0.537500
0.541667
0.541667
0.537500
0.541667
0.537500
0.541667
0.537500
0.545833
0.541667
0.404167
0.637500
0.545833
0.541667
0.420833
0.629167
0.545833
0.541667
0.416667
0.620833
0.550000
0.541667
0.420833
0.625000
0.550000
0.541667
0.416667
0.625000
0.554167
0.541667
0.408333
0.629167
0.558333
0.537500
0.433333
0.612500
0.545833
0.533333
0.425000
0.625000
0.545833
0.537500
0.408333
0.625000
0.550000
0.537500
0.408333
0.633333
0.550000
0.537500
0.412500
0.625000
0.554167
0.541667
0.420833
0.616667
0.545833
0.545833
0.420833
0.616667
0.550000
0.537500
0.416667
0.625000
0.550000
0.541667
0.404167
0.633333
0.550000
0.537500
0.537500
0.545833
0.533333
0.537500
0.541667
0.537500
0.533333
0.529167
0.537500
0.537500
0.537500
0.537500
0.366667
0.637500
0.570833
0.541667
0.541667
0.545833
0.541667
0.541667
0.541667
0.541667
0.541667
0.541667
0.541667
0.537500
0.541667
0.541667
0.537500
0.537500
0.541667
0.537500
0.537500
0.537500
0.537500
0.537500
0.537500
0.533333
0.541667
0.537500
0.541667
0.537500
0.537500
0.533333
0.541667
0.537500
