0.204167
0.341667
0.595833
0.375000
0.562500
0.425000
0.250000
0.366667
0.095833
0.258333
0.379167
0.608333
0.370833
0.204167
0.404167
0.450000
0.537500
0.420833
0.325000
0.241667
0.516667
0.379167
0.083333
0.395833
0.379167
0.241667
0.645833
0.212500
0.479167
0.383333
0.237500
0.404167
0.604167
0.445833
0.229167
0.341667
0.637500
0.741667
0.195833
0.379167
1.004167
0.450000
0.545833
0.404167
0.258333
0.758333
0.525000
0.425000
0.250000
0.325000
0.383333
0.608333
0.245833
0.433333
0.500000
0.750000
0.170833
0.662500
0.162500
0.529167
0.125000
0.312500
0.658333
0.325000
0.537500
0.433333
0.341667
0.104167
0.520833
0.720833
0.045833
0.204167
0.204167
0.758333
0.391667
0.566667
0.258333
0.212500
0.512500
0.379167
0.600000
0.016667
0.404167
0.258333
0.320833
0.420833
0.550000
0.591667
0.416667
0.370833
0.591667
0.383333
0.229167
0.375000
0.412500
0.266667
0.304167
0.237500
0.412500
0.829167
0.475000
0.508333
0.179167
0.312500
0.275000
0.387500
0.316667
0.283333
0.720833
0.612500
0.370833
0.445833
0.550000
0.266667
0.458333
0.233333
0.320833
0.683333
0.125000
0.391667
0.475000
0.683333
0.566667
0.725000
0.316667
0.687500
0.404167
0.087500
0.508333
0.662500
0.487500
0.466667
0.370833
0.325000
0.104167
0.275000
0.270833
0.479167
0.262500
0.275000
0.554167
0.420833
0.608333
0.379167
0.450000
0.241667
0.391667
0.416667
0.475000
0.400000
0.262500
0.308333
0.612500
0.379167
0.400000
0.600000
0.383333
0.370833
0.504167
0.687500
0.679167
0.283333
0.391667
0.395833
0.579167
0.354167
0.241667
0.404167
0.579167
0.404167
0.083333
0.495833
0.508333
0.470833
0.337500
0.662500
0.495833
0.470833
0.254167
0.379167
0.358333
0.066667
0.920833
0.408333
0.541667
0.475000
0.333333
0.204167
0.437500
0.566667
0.275000
0.404167
0.287500
0.554167
0.450000
0.375000
0.300000
0.320833
0.729167
0.254167
0.241667
0.345833
0.425000
0.237500
0.758333
0.700000
0.283333
0.295833
0.691667
0.966667
0.620833
0.358333
0.241667
0.495833
0.241667
0.254167
0.320833
0.425000
0.379167
0.333333
0.270833
0.550000
0.429167
0.437500
0.304167
0.366667
0.845833
0.020833
0.404167
0.570833
0.412500
0.229167
0.362500
0.479167
0.787500
0.687500
0.379167
0.233333
0.370833
0.445833
0.237500
0.300000
0.725000
0.262500
0.470833
0.504167
0.275000
0.704167
0.350000
0.633333
0.379167
0.604167
0.962500
0.025000
0.383333
0.383333
0.229167
0.262500
0.725000
0.400000
0.575000
0.450000
0.529167
0.583333
0.383333
0.479167
0.537500
0.333333
0.350000
0.308333
0.279167
0.416667
0.262500
0.475000
0.545833
0.345833
0.641667
0.441667
0.537500
0.004167
0.437500
0.229167
0.425000
0.120833
0.262500
0.487500
0.283333
0.454167
0.279167
0.325000
0.270833
0.387500
0.658333
0.604167
0.341667
0.350000
0.537500
0.445833
0.741667
0.233333
0.441667
0.300000
0.233333
0.345833
0.091667
0.216667
0.325000
0.508333
0.241667
0.212500
0.575000
0.400000
0.308333
0.375000
0.291667
0.645833
0.320833
0.537500
0.445833
0.345833
0.620833
0.312500
0.295833
0.370833
0.412500
0.558333
0.287500
0.700000
0.587500
0.375000
0.308333
0.475000
0.200000
0.483333
0.454167
0.470833
0.229167
0.316667
0.979167
0.450000
0.525000
0.404167
0.154167
0.425000
0.391667
0.200000
0.387500
0.270833
0.708333
0.670833
0.308333
0.454167
0.525000
0.400000
0.358333
0.237500
0.383333
0.600000
0.216667
0.770833
0.270833
0.712500
0.750000
0.254167
0.266667
0.395833
0.508333
0.145833
0.645833
0.554167
0.450000
0.308333
0.387500
0.295833
0.420833
0.312500
0.254167
0.341667
0.637500
0.400000
0.575000
0.266667
0.729167
0.800000
0.183333
0.350000
0.237500
0.391667
0.404167
0.570833
0.633333
0.358333
0.675000
0.291667
0.383333
0.262500
0.358333
0.362500
0.304167
0.304167
0.433333
0.554167
0.341667
0.620833
0.387500
0.600000
0.783333
0.216667
0.029167
0.550000
0.395833
0.383333
0.583333
0.412500
0.429167
0.166667
0.441667
0.287500
0.258333
0.391667
0.587500
0.416667
0.145833
0.441667
0.370833
0.187500
0.441667
0.275000
0.250000
0.441667
0.370833
0.625000
0.716667
0.275000
0.658333
0.325000
0.316667
0.362500
0.654167
0.391667
0.254167
1.008333
0.858333
0.141667
0.362500
0.283333
0.433333
0.345833
0.258333
0.483333
0.387500
0.412500
0.266667
0.725000
0.512500
0.450000
0.250000
0.716667
0.404167
0.287500
0.258333
0.475000
0.525000
0.258333
0.287500
0.429167
0.116667
0.495833
0.337500
0.358333
0.320833
0.304167
0.266667
0.437500
0.283333
0.675000
0.325000
0.687500
0.283333
0.479167
0.258333
0.254167
0.633333
0.341667
0.500000
0.487500
0.404167
0.337500
0.245833
0.566667
0.420833
0.429167
0.554167
0.404167
0.583333
0.758333
0.629167
0.591667
0.725000
0.395833
0.841667
0.970833
0.983333
0.570833
0.416667
0.433333
0.537500
0.483333
0.483333
0.591667
0.387500
1.004167
0.420833
0.562500
0.645833
0.325000
0.541667
0.429167
0.779167
0.200000
0.275000
0.295833
0.200000
0.212500
0.541667
0.433333
0.291667
0.691667
0.429167
1.137500
0.387500
1.008333
0.391667
0.550000
0.395833
0.262500
0.112500
0.245833
0.987500
0.454167
0.525000
0.458333
0.525000
0.995833
0.962500
0.720833
0.275000
0.370833
0.258333
0.350000
0.441667
0.550000
0.229167
0.541667
0.212500
0.391667
0.595833
0.745833
0.237500
0.554167
0.416667
0.762500
0.237500
0.320833
0.658333
0.966667
0.429167
0.554167
0.983333
0.416667
0.258333
0.295833
0.441667
0.550000
0.575000
0.395833
0.458333
0.529167
0.975000
0.441667
0.512500
0.375000
0.404167
0.237500
0.445833
0.283333
0.570833
0.658333
0.966667
0.620833
0.375000
0.404167
0.570833
0.987500
0.779167
0.212500
0.354167
0.208333
0.408333
1.000000
0.533333
0.450000
0.604167
0.379167
0.391667
0.608333
0.437500
0.537500
0.766667
0.654167
0.541667
0.983333
0.450000
0.545833
0.741667
0.245833
0.979167
0.450000
0.554167
0.970833
0.983333
0.566667
1.383333
1.491667
0.104167
0.379167
1.000000
0.579167
0.404167
1.150000
0.216667
0.954167
0.612500
0.966667
0.695833
0.862500
1.354167
0.966667
0.950000
0.704167
0.270833
0.950000
0.708333
0.266667
0.670833
0.925000
0.354167
0.425000
0.533333
0.637500
0.283333
0.441667
0.554167
0.550000
0.437500
0.508333
0.445833
0.970833
0.229167
1.429167
0.287500
0.512500
0.441667
0.470833
0.529167
0.654167
0.320833
0.437500
0.562500
0.666667
0.300000
0.620833
0.354167
0.966667
1.000000
0.379167
0.604167
0.975000
0.983333
1.525000
0.445833
0.966667
0.379167
0.604167
0.983333
0.979167
0.983333
0.983333
0.987500
0.987500
0.229167
0.212500
0.520833
0.525000
0.654167
1.487500
0.258333
0.416667
0.545833
0.625000
0.333333
0.945833
0.958333
0.429167
0.541667
0.445833
1.170833
0.300000
0.954167
0.962500
0.958333
0.958333
1.004167
0.958333
0.966667
0.970833
0.975000
0.975000
0.695833
0.287500
0.979167
0.979167
0.966667
0.975000
0.987500
0.975000
0.970833
0.995833
0.475000
0.495833
0.658333
0.325000
0.554167
0.420833
0.445833
0.550000
0.983333
0.983333
0.900000
1.062500
0.987500
0.537500
0.445833
0.979167
0.987500
0.983333
0.979167
0.970833
0.970833
0.675000
1.295833
0.979167
0.991667
0.483333
0.487500
0.983333
0.970833
0.970833
0.279167
0.704167
0.979167
0.400000
0.216667
0.366667
0.695833
0.275000
0.570833
0.404167
0.512500
0.466667
0.666667
0.287500
0.608333
1.308333
0.066667
0.683333
0.283333
0.379167
0.591667
0.279167
0.520833
1.137500
0.275000
0.704167
0.979167
0.975000
0.125000
0.841667
0.537500
0.441667
0.970833
0.995833
0.958333
0.983333
0.987500
0.704167
0.258333
0.979167
0.979167
0.983333
0.425000
0.550000
0.975000
0.445833
0.537500
0.983333
0.987500
0.970833
0.975000
0.654167
0.320833
0.995833
0.975000
0.995833
0.954167
0.983333
0.720833
0.250000
0.962500
0.620833
0.379167
0.975000
0.491667
0.483333
0.975000
0.900000
0.079167
0.529167
0.450000
0.712500
0.516667
0.712500
0.983333
0.975000
0.975000
0.950000
0.437500
0.533333
0.441667
0.533333
0.450000
0.525000
0.970833
0.662500
0.320833
0.766667
0.204167
0.966667
0.379167
0.600000
0.241667
0.741667
0.970833
0.716667
0.258333
0.966667
0.970833
0.966667
0.983333
1.462500
0.500000
0.933333
1.000000
0.979167
1.937500
0.558333
0.425000
0.975000
0.979167
0.970833
0.666667
1.275000
0.608333
0.375000
0.266667
0.720833
0.733333
0.229167
0.437500
0.533333
0.441667
0.545833
1.450000
0.495833
0.983333
0.733333
0.233333
0.541667
0.420833
0.987500
0.575000
0.383333
0.220833
0.741667
0.958333
0.712500
0.245833
0.970833
0.958333
0.966667
0.691667
0.262500
1.004167
0.958333
0.491667
0.483333
0.737500
1.220833
0.979167
0.950000
0.991667
0.945833
1.387500
1.575000
0.970833
1.712500
1.216667
0.716667
0.266667
0.954167
0.983333
0.975000
0.820833
0.729167
0.391667
0.987500
0.966667
0.966667
0.987500
1.366667
1.554167
0.983333
0.966667
0.979167
1.645833
0.320833
0.966667
1.950000
0.966667
1.945833
1.412500
0.329167
1.212500
0.962500
0.966667
0.258333
1.233333
1.420833
0.979167
0.975000
1.775000
1.150000
0.962500
0.716667
0.250000
0.983333
0.279167
1.387500
1.533333
0.687500
0.966667
0.587500
0.383333
0.562500
1.362500
0.683333
0.300000
0.975000
0.966667
0.370833
0.595833
0.558333
0.404167
0.391667
0.612500
0.483333
0.483333
0.716667
0.262500
0.941667
0.745833
0.241667
1.004167
0.979167
0.979167
0.366667
0.625000
0.408333
0.570833
0.983333
1.375000
0.575000
0.533333
0.466667
0.983333
0.975000
0.975000
0.975000
1.416667
0.529167
1.941667
0.425000
0.220833
0.329167
0.025000
0.525000
0.387500
0.683333
0.291667
0.395833
0.612500
0.295833
0.679167
0.558333
0.425000
0.966667
0.966667
0.479167
0.504167
0.866667
0.087500
0.675000
0.691667
0.229167
0.366667
0.408333
0.241667
0.325000
0.912500
0.054167
0.450000
0.062500
0.483333
0.733333
0.229167
0.579167
0.391667
0.270833
0.225000
0.475000
0.770833
0.879167
0.291667
0.991667
0.412500
0.533333
0.312500
0.658333
1.470833
0.458333
0.966667
0.591667
0.391667
0.233333
0.379167
0.329167
0.716667
0.808333
0.687500
0.470833
0.225000
0.654167
0.316667
0.433333
0.362500
0.179167
0.379167
0.579167
0.283333
0.275000
0.404167
0.708333
0.275000
0.620833
0.325000
0.550000
1.079167
0.854167
0.441667
0.979167
0.941667
0.725000
0.258333
0.383333
0.591667
0.604167
0.354167
0.654167
0.316667
0.691667
0.245833
0.575000
0.425000
0.316667
0.108333
0.545833
0.516667
0.458333
0.712500
0.254167
0.458333
0.512500
0.975000
0.975000
0.958333
0.383333
0.595833
0.975000
0.641667
0.979167
1.300000
1.937500
0.129167
0.841667
0.979167
0.941667
