0.554167
0.554167
0.562500
0.550000
0.554167
0.554167
0.562500
0.554167
0.550000
0.558333
0.558333
0.554167
0.554167
0.554167
0.562500
0.550000
0.554167
0.554167
0.562500
0.554167
0.550000
0.558333
0.562500
0.554167
0.554167
0.554167
0.562500
0.554167
0.550000
0.554167
0.558333
0.554167
0.550000
0.554167
0.558333
0.554167
0.554167
0.558333
0.562500
0.554167
0.554167
0.558333
0.562500
0.554167
0.558333
0.562500
0.562500
0.562500
0.562500
0.562500
0.566667
0.566667
0.562500
0.562500
0.566667
0.562500
0.562500
0.562500
0.570833
0.562500
0.558333
0.562500
0.566667
0.562500
0.554167
0.562500
0.566667
0.558333
0.558333
0.558333
0.566667
0.558333
0.558333
0.554167
0.566667
0.558333
0.558333
0.554167
0.554167
0.558333
0.558333
0.554167
0.558333
0.566667
0.554167
0.554167
0.558333
0.562500
0.554167
0.554167
0.558333
0.562500
0.558333
0.558333
0.566667
0.554167
0.554167
0.562500
0.562500
0.558333
0.554167
0.562500
0.558333
0.550000
0.558333
0.562500
0.554167
0.550000
0.554167
0.558333
0.562500
0.554167
0.554167
0.554167
0.554167
0.554167
0.550000
0.554167
0.562500
0.550000
0.550000
0.554167
0.558333
0.550000
0.545833
0.550000
0.554167
0.545833
0.545833
0.554167
0.545833
0.545833
0.550000
0.550000
0.545833
0.545833
0.545833
0.554167
0.545833
0.541667
0.545833
0.550000
0.545833
0.545833
0.545833
0.550000
0.545833
0.545833
0.550000
0.554167
0.545833
0.545833
0.545833
0.554167
0.550000
0.545833
0.550000
0.550000
0.562500
0.550000
0.550000
0.550000
0.554167
0.562500
0.550000
0.554167
0.554167
0.429167
0.683333
0.554167
0.554167
0.554167
0.558333
0.554167
0.554167
0.558333
0.562500
0.554167
0.554167
0.558333
0.562500
0.558333
0.554167
0.562500
0.566667
0.558333
0.558333
0.562500
0.566667
0.558333
0.558333
0.558333
0.566667
0.562500
0.554167
0.558333
0.562500
0.562500
0.558333
0.554167
0.554167
0.566667
0.550000
0.554167
0.554167
0.562500
0.550000
0.554167
0.550000
0.558333
0.558333
0.550000
0.554167
0.554167
0.554167
0.554167
0.545833
0.550000
0.558333
0.558333
0.554167
0.545833
0.554167
0.558333
0.550000
0.550000
0.554167
0.558333
0.554167
0.550000
0.550000
0.562500
0.550000
0.550000
0.550000
0.558333
0.550000
0.550000
0.545833
0.554167
0.558333
0.550000
0.545833
0.554167
0.554167
0.545833
0.545833
0.554167
0.554167
0.550000
0.545833
0.545833
0.558333
0.545833
0.545833
0.545833
0.554167
0.545833
0.545833
0.545833
0.550000
0.550000
0.545833
0.545833
0.550000
0.554167
0.545833
0.545833
0.550000
0.554167
0.545833
0.545833
0.550000
0.558333
0.545833
0.550000
0.550000
0.554167
0.554167
0.550000
0.550000
0.554167
0.562500
0.550000
0.554167
0.554167
0.558333
0.554167
0.550000
0.550000
0.558333
0.562500
0.550000
0.554167
0.554167
0.558333
0.554167
0.550000
0.554167
0.558333
0.554167
0.554167
0.550000
0.554167
0.558333
0.554167
0.550000
0.558333
0.562500
0.554167
0.550000
0.554167
0.558333
0.554167
0.554167
0.558333
0.562500
0.558333
0.554167
0.558333
0.562500
0.558333
0.554167
0.558333
0.562500
0.558333
0.554167
0.554167
0.562500
0.562500
0.554167
0.554167
0.558333
0.558333
0.558333
0.554167
0.562500
0.558333
0.554167
0.558333
0.562500
0.554167
0.554167
0.558333
0.562500
0.562500
0.554167
0.558333
0.562500
0.562500
0.554167
0.562500
0.562500
0.558333
0.554167
0.562500
0.566667
0.554167
0.558333
0.558333
0.566667
0.554167
0.554167
0.558333
0.558333
0.566667
0.554167
0.550000
0.558333
0.554167
0.554167
0.550000
0.558333
0.558333
0.554167
0.550000
0.554167
0.558333
0.550000
0.554167
0.550000
0.558333
0.554167
0.554167
0.554167
0.562500
0.562500
0.554167
0.554167
0.562500
0.566667
0.554167
0.558333
0.558333
0.566667
0.558333
0.554167
0.558333
0.566667
0.558333
0.558333
0.558333
0.562500
0.566667
0.554167
0.558333
0.554167
0.566667
0.554167
0.554167
0.554167
0.558333
0.558333
0.554167
0.550000
0.558333
0.558333
0.554167
0.550000
0.554167
0.558333
0.554167
0.550000
0.554167
0.562500
0.554167
0.554167
0.554167
0.558333
0.562500
0.554167
0.554167
0.554167
0.566667
0.554167
0.554167
0.554167
0.566667
0.566667
0.558333
0.554167
0.562500
0.566667
0.558333
0.554167
0.558333
0.562500
0.558333
0.558333
0.562500
0.566667
0.295833
0.258333
0.412500
0.675000
0.591667
0.579167
0.587500
0.579167
0.587500
0.583333
0.583333
0.583333
0.608333
0.566667
0.379167
0.208333
0.600000
0.591667
0.595833
0.591667
0.587500
0.591667
0.583333
0.579167
0.583333
0.575000
0.570833
0.570833
0.575000
0.562500
0.562500
0.562500
0.566667
0.558333
0.554167
0.554167
0.562500
0.554167
0.545833
0.545833
0.554167
0.550000
0.541667
0.541667
0.545833
0.554167
0.541667
0.541667
0.541667
0.541667
0.550000
0.550000
0.541667
0.537500
0.545833
0.541667
0.541667
0.541667
0.545833
0.541667
0.545833
0.554167
0.312500
0.220833
0.541667
0.541667
0.550000
0.545833
0.545833
0.545833
0.262500
0.287500
0.550000
0.558333
0.558333
0.562500
0.570833
0.575000
0.570833
0.570833
0.566667
0.558333
0.566667
0.566667
0.562500
0.554167
0.562500
0.558333
0.550000
0.554167
0.558333
0.554167
0.550000
0.545833
0.558333
0.554167
0.545833
0.545833
0.545833
0.550000
0.550000
0.554167
0.541667
0.545833
0.541667
0.545833
0.550000
0.550000
0.541667
0.541667
0.545833
0.550000
0.541667
0.541667
0.545833
0.545833
0.550000
0.541667
0.545833
0.541667
0.545833
0.550000
0.545833
0.541667
0.545833
0.554167
0.541667
0.545833
0.541667
0.554167
0.550000
0.545833
0.545833
0.550000
0.554167
0.545833
0.545833
0.550000
0.554167
0.545833
0.545833
0.545833
0.554167
0.545833
0.545833
0.545833
0.558333
0.545833
0.545833
0.550000
0.554167
0.550000
0.550000
0.550000
0.558333
0.550000
0.550000
0.550000
0.558333
0.550000
0.550000
0.550000
0.554167
0.550000
0.545833
0.550000
0.554167
0.545833
0.545833
0.545833
0.554167
0.545833
0.541667
0.550000
0.550000
0.550000
0.554167
0.258333
0.295833
0.562500
0.558333
0.562500
0.562500
0.562500
0.566667
0.570833
0.566667
0.329167
0.241667
0.575000
0.575000
0.587500
0.579167
0.575000
0.570833
0.570833
0.579167
0.566667
0.558333
0.570833
0.562500
0.554167
0.558333
0.566667
0.554167
0.550000
0.558333
0.550000
0.545833
0.550000
0.554167
0.545833
0.541667
0.550000
0.545833
0.545833
0.537500
0.545833
0.545833
0.537500
0.541667
0.537500
0.545833
0.537500
0.537500
0.537500
0.545833
0.537500
0.537500
0.537500
0.537500
0.545833
0.537500
0.541667
0.537500
0.541667
0.550000
0.537500
0.541667
0.545833
0.550000
0.541667
0.545833
0.541667
0.541667
1.095833
0.541667
0.541667
0.550000
0.545833
0.541667
0.545833
0.550000
0.545833
0.545833
0.541667
0.541667
0.550000
0.541667
0.541667
0.545833
0.545833
0.550000
0.541667
0.537500
0.545833
0.545833
0.541667
0.541667
0.541667
0.545833
0.550000
0.545833
0.537500
0.541667
0.550000
0.550000
0.545833
0.541667
0.545833
0.550000
0.554167
0.545833
0.541667
0.550000
0.558333
0.545833
0.545833
0.545833
0.545833
0.545833
0.545833
0.545833
0.558333
0.545833
0.545833
0.545833
0.554167
0.545833
0.541667
0.550000
0.554167
0.545833
0.541667
0.545833
0.554167
0.545833
0.545833
0.545833
0.550000
0.554167
0.545833
0.541667
0.545833
0.554167
0.545833
0.541667
0.545833
0.550000
0.550000
0.545833
0.541667
0.550000
0.541667
0.541667
0.541667
0.545833
0.554167
0.541667
0.541667
0.541667
0.550000
0.541667
0.541667
0.537500
0.545833
0.554167
0.541667
0.537500
0.541667
0.550000
0.541667
0.537500
0.541667
0.541667
0.550000
0.541667
0.541667
0.541667
0.541667
0.550000
0.541667
0.545833
0.541667
0.550000
0.554167
0.541667
0.545833
0.550000
0.550000
0.545833
0.545833
0.545833
0.550000
0.545833
0.541667
0.554167
0.554167
0.545833
0.545833
0.541667
0.554167
0.545833
0.545833
0.545833
0.550000
0.550000
0.541667
0.545833
0.545833
0.545833
0.541667
0.541667
0.545833
0.550000
0.541667
0.541667
0.541667
0.550000
0.541667
0.537500
0.537500
0.545833
0.541667
0.541667
0.533333
0.545833
0.545833
0.537500
0.537500
0.541667
0.545833
0.537500
0.537500
0.541667
0.541667
0.541667
0.537500
0.537500
0.541667
0.545833
0.541667
0.537500
0.541667
0.545833
0.537500
0.537500
0.541667
0.541667
0.541667
0.537500
0.541667
0.541667
0.545833
0.545833
0.541667
0.541667
0.541667
0.541667
0.541667
0.541667
0.550000
0.550000
0.545833
0.541667
0.545833
0.554167
0.541667
0.545833
0.545833
0.550000
0.554167
0.545833
0.541667
0.545833
0.554167
0.545833
0.545833
0.541667
0.554167
0.545833
0.545833
0.541667
0.545833
0.545833
0.541667
0.545833
0.550000
0.541667
0.541667
0.541667
0.545833
0.554167
0.541667
0.541667
0.545833
0.550000
0.545833
0.541667
0.541667
0.550000
0.550000
0.545833
0.545833
0.541667
0.550000
0.545833
0.545833
0.545833
0.550000
0.550000
0.545833
0.545833
0.545833
0.554167
0.545833
0.545833
0.550000
0.554167
0.550000
0.545833
0.550000
0.554167
0.558333
0.550000
0.545833
0.554167
0.558333
0.550000
0.550000
0.545833
0.558333
0.550000
0.550000
0.545833
0.554167
0.558333
0.545833
0.550000
0.550000
0.554167
0.550000
0.545833
0.550000
0.554167
0.550000
0.550000
0.550000
0.554167
0.558333
0.550000
0.554167
0.550000
0.558333
0.554167
0.550000
0.554167
0.558333
0.562500
0.554167
0.550000
0.558333
0.558333
0.550000
0.550000
0.550000
0.558333
0.558333
0.545833
0.545833
0.554167
0.558333
0.550000
0.545833
0.545833
0.545833
0.554167
0.545833
0.545833
0.545833
0.554167
0.550000
0.545833
0.541667
0.550000
0.554167
0.541667
0.545833
0.545833
0.558333
0.545833
0.545833
0.554167
0.550000
0.550000
0.550000
0.550000
0.554167
0.550000
0.550000
0.545833
0.550000
0.554167
0.550000
0.545833
0.550000
0.558333
0.545833
0.545833
0.550000
0.554167
0.545833
0.545833
0.545833
0.550000
0.554167
0.545833
0.541667
0.550000
0.554167
0.545833
0.545833
0.545833
0.554167
0.545833
0.545833
0.545833
0.554167
0.550000
0.545833
0.545833
0.554167
0.545833
0.545833
0.545833
0.550000
0.550000
0.545833
0.541667
0.550000
0.550000
0.550000
0.545833
0.550000
0.550000
0.554167
0.545833
0.545833
0.550000
0.558333
0.550000
0.545833
0.554167
0.558333
0.550000
0.550000
0.550000
0.558333
0.550000
0.554167
0.554167
0.554167
0.554167
0.554167
0.554167
0.562500
0.550000
0.554167
0.550000
0.562500
0.550000
0.550000
0.554167
0.558333
0.558333
0.550000
0.550000
0.554167
0.558333
0.545833
0.550000
0.554167
0.550000
0.550000
0.550000
0.558333
0.550000
0.550000
0.550000
0.558333
0.550000
0.545833
0.554167
0.558333
0.545833
0.545833
0.550000
0.554167
0.545833
0.545833
0.550000
0.550000
0.550000
0.545833
0.541667
0.550000
0.554167
0.550000
0.541667
0.545833
0.554167
0.545833
0.545833
0.545833
