0.545833
0.545833
0.545833
0.545833
0.545833
0.550000
0.558333
0.545833
0.554167
0.550000
0.558333
0.554167
0.550000
0.562500
0.558333
0.562500
0.558333
0.562500
0.562500
0.554167
0.562500
0.562500
0.562500
0.570833
0.566667
0.566667
0.583333
0.570833
0.570833
0.575000
0.279167
0.866667
0.554167
0.562500
0.550000
0.570833
0.570833
0.562500
0.562500
0.579167
0.575000
0.570833
0.579167
0.570833
0.570833
0.558333
0.562500
0.558333
0.562500
0.562500
0.570833
0.570833
0.579167
0.575000
0.583333
0.583333
0.579167
0.575000
0.279167
0.304167
0.587500
0.575000
0.579167
0.575000
0.583333
0.591667
0.591667
0.583333
0.587500
0.583333
0.583333
0.583333
0.579167
0.575000
0.579167
0.579167
0.583333
0.579167
0.575000
0.579167
0.579167
0.570833
0.575000
0.583333
0.575000
0.579167
0.570833
0.566667
0.566667
0.312500
0.262500
0.566667
0.566667
0.570833
0.566667
0.566667
0.570833
0.570833
0.570833
0.566667
0.579167
0.579167
0.583333
0.575000
0.583333
0.583333
0.583333
0.575000
0.583333
0.579167
0.575000
0.570833
0.579167
0.583333
0.587500
0.587500
0.591667
0.587500
0.600000
0.587500
0.591667
0.583333
0.587500
0.595833
0.587500
0.591667
0.587500
0.591667
0.583333
0.587500
0.591667
0.591667
0.604167
0.600000
0.600000
0.595833
0.591667
0.600000
0.595833
0.600000
0.591667
0.591667
0.595833
0.587500
0.591667
0.587500
0.591667
0.595833
0.595833
0.591667
0.591667
0.595833
0.587500
0.595833
0.666667
0.500000
0.600000
0.587500
0.575000
0.575000
0.579167
0.579167
0.575000
0.579167
0.575000
0.575000
0.575000
0.575000
0.583333
0.579167
0.570833
0.575000
0.570833
0.579167
0.570833
0.370833
0.066667
0.454167
0.245833
0.587500
0.570833
0.579167
0.583333
0.570833
0.575000
0.575000
0.570833
0.562500
0.562500
0.562500
0.566667
0.562500
0.558333
0.562500
0.554167
0.154167
0.412500
0.562500
0.558333
0.566667
0.566667
0.562500
0.566667
0.562500
0.562500
0.379167
0.333333
0.387500
0.537500
0.545833
0.545833
0.550000
0.550000
0.562500
0.558333
0.554167
0.566667
0.554167
0.562500
0.558333
0.562500
0.562500
0.558333
0.575000
0.570833
0.575000
0.575000
0.566667
0.562500
0.566667
0.566667
0.562500
0.566667
0.562500
0.554167
0.554167
0.554167
0.562500
0.558333
0.337500
0.225000
0.562500
0.566667
0.570833
0.566667
0.566667
0.687500
0.454167
0.575000
0.579167
0.575000
0.575000
0.575000
0.579167
0.575000
0.570833
0.325000
0.241667
0.070833
0.504167
0.579167
0.575000
0.562500
0.570833
0.570833
0.566667
0.570833
0.562500
0.566667
0.566667
0.566667
0.650000
0.208333
0.829167
0.558333
0.558333
0.554167
0.554167
0.558333
0.550000
0.558333
0.550000
0.554167
0.558333
0.554167
0.554167
0.554167
0.558333
0.562500
0.562500
0.562500
0.562500
0.566667
0.562500
0.562500
0.562500
0.562500
0.562500
0.575000
0.570833
0.570833
0.266667
0.287500
0.566667
0.466667
0.445833
0.237500
0.566667
0.566667
0.579167
0.583333
0.570833
0.566667
0.562500
0.566667
0.562500
0.554167
0.562500
0.562500
0.562500
0.562500
0.558333
0.562500
0.558333
0.554167
0.558333
0.550000
0.554167
0.554167
0.554167
0.562500
0.562500
0.562500
0.566667
0.566667
0.566667
0.575000
0.579167
0.566667
0.583333
0.575000
0.579167
0.575000
0.570833
0.570833
0.579167
0.575000
0.704167
0.433333
0.575000
0.566667
0.500000
0.075000
0.258333
0.300000
0.570833
0.562500
0.233333
0.329167
0.208333
0.358333
0.562500
0.562500
0.562500
0.562500
0.566667
0.566667
0.554167
0.558333
0.558333
0.566667
0.558333
0.558333
0.566667
0.570833
0.570833
0.566667
0.566667
0.566667
0.570833
0.566667
0.570833
0.570833
0.425000
0.712500
0.575000
0.562500
0.562500
0.570833
0.566667
0.566667
0.570833
0.566667
0.562500
0.562500
0.558333
0.575000
0.545833
0.558333
0.558333
0.558333
0.558333
0.554167
0.550000
0.550000
0.554167
0.554167
0.554167
0.550000
0.545833
0.550000
0.545833
0.545833
0.550000
0.550000
0.550000
0.562500
0.558333
0.558333
0.558333
0.562500
0.562500
0.570833
0.566667
0.566667
0.566667
0.570833
0.575000
0.579167
0.575000
0.579167
0.587500
0.583333
0.591667
0.583333
0.587500
0.583333
0.583333
0.575000
0.287500
0.287500
0.579167
0.570833
0.570833
0.566667
0.566667
0.570833
0.575000
0.575000
0.570833
0.570833
0.562500
0.562500
0.570833
0.558333
0.566667
0.258333
0.258333
0.600000
0.566667
0.558333
0.562500
0.558333
0.558333
0.558333
0.554167
0.662500
0.450000
0.275000
0.287500
0.558333
0.458333
0.650000
0.545833
0.550000
0.541667
0.550000
0.554167
0.545833
0.558333
0.562500
0.558333
0.554167
0.558333
0.558333
0.558333
0.554167
0.566667
0.566667
0.558333
0.562500
0.566667
0.566667
0.566667
0.216667
0.333333
0.554167
0.554167
0.558333
0.558333
0.566667
0.570833
0.562500
0.558333
0.570833
0.570833
0.566667
0.566667
0.566667
0.575000
0.570833
0.566667
0.562500
0.566667
0.570833
0.566667
0.579167
0.570833
0.579167
0.583333
0.575000
0.575000
0.570833
0.575000
0.654167
0.491667
0.562500
0.562500
0.570833
0.562500
0.562500
0.262500
0.295833
0.341667
0.212500
0.558333
0.550000
0.554167
0.554167
0.558333
0.554167
0.545833
0.545833
0.550000
0.545833
0.545833
0.554167
0.558333
0.554167
0.558333
0.554167
0.562500
0.558333
0.554167
0.566667
0.562500
0.570833
0.566667
0.570833
0.570833
0.575000
0.570833
0.429167
0.716667
0.758333
0.362500
0.587500
0.570833
0.570833
0.587500
0.575000
0.575000
0.575000
0.570833
0.566667
0.566667
0.562500
0.562500
0.558333
0.554167
0.550000
0.554167
0.554167
0.562500
0.554167
0.433333
0.675000
0.558333
0.558333
0.554167
0.550000
0.554167
0.558333
0.545833
0.566667
0.550000
0.562500
0.562500
0.562500
0.570833
0.570833
0.570833
0.562500
0.562500
0.566667
0.562500
0.562500
0.662500
0.462500
0.558333
0.566667
0.562500
0.566667
0.558333
0.562500
0.558333
0.554167
0.600000
0.508333
0.558333
0.550000
0.554167
0.558333
0.566667
0.566667
0.558333
0.570833
0.562500
0.566667
0.554167
0.558333
0.562500
0.570833
0.562500
0.566667
0.566667
0.562500
0.562500
0.562500
0.566667
0.570833
0.575000
0.570833
0.575000
0.391667
0.733333
0.570833
0.562500
0.562500
0.562500
0.570833
0.566667
0.558333
0.566667
0.562500
0.575000
0.570833
0.566667
0.570833
0.570833
0.566667
0.566667
0.575000
0.566667
0.566667
0.562500
0.575000
0.570833
0.575000
0.575000
0.570833
0.570833
0.558333
0.575000
0.566667
0.566667
0.575000
0.575000
0.575000
0.570833
0.570833
0.562500
0.566667
0.558333
0.558333
0.566667
0.554167
0.437500
0.691667
0.566667
0.562500
0.562500
0.566667
0.566667
0.341667
0.791667
0.570833
0.570833
0.575000
0.566667
0.575000
0.570833
0.575000
0.566667
0.566667
0.575000
0.579167
0.570833
0.687500
0.325000
0.712500
0.566667
0.570833
0.562500
0.404167
0.279167
0.433333
0.241667
0.304167
0.254167
0.308333
0.387500
0.283333
0.291667
0.695833
0.545833
0.550000
0.550000
0.550000
0.545833
0.554167
0.550000
0.554167
0.550000
0.554167
0.554167
0.554167
0.554167
0.545833
0.554167
0.558333
0.558333
0.558333
0.558333
0.566667
0.566667
0.562500
0.562500
0.558333
0.566667
0.566667
0.570833
0.570833
0.579167
0.583333
0.579167
0.583333
0.579167
0.595833
0.595833
0.595833
0.587500
0.579167
0.587500
0.587500
0.583333
0.483333
0.679167
0.579167
0.583333
0.579167
0.587500
0.591667
0.587500
0.583333
0.579167
0.587500
0.579167
0.583333
0.583333
0.570833
0.587500
0.583333
0.583333
0.579167
0.587500
0.591667
0.587500
0.587500
0.583333
0.587500
0.595833
0.591667
0.591667
0.587500
0.595833
0.595833
0.587500
0.587500
0.583333
0.604167
0.591667
0.591667
0.591667
0.583333
0.591667
0.595833
0.587500
0.591667
0.604167
0.600000
0.591667
0.595833
0.608333
0.604167
0.604167
0.604167
0.600000
0.608333
0.591667
0.608333
0.229167
0.329167
0.487500
0.737500
0.583333
0.575000
0.575000
0.570833
0.575000
0.566667
0.575000
0.566667
0.575000
0.566667
0.575000
0.829167
0.200000
0.112500
0.329167
0.458333
0.337500
0.245833
0.316667
0.370833
0.741667
0.554167
0.550000
0.545833
0.541667
0.545833
0.545833
0.541667
0.545833
0.545833
0.545833
0.537500
0.545833
0.545833
0.545833
0.550000
0.550000
0.554167
0.558333
0.558333
0.558333
0.562500
0.570833
0.570833
0.566667
0.566667
0.575000
0.575000
0.579167
0.579167
0.583333
0.583333
0.583333
0.583333
0.583333
0.587500
0.587500
0.591667
0.587500
0.583333
0.595833
0.591667
0.587500
0.591667
0.587500
0.595833
0.595833
0.587500
0.595833
0.591667
0.600000
0.608333
0.600000
0.608333
0.595833
0.600000
0.604167
0.600000
0.608333
0.608333
0.604167
0.600000
0.591667
0.595833
0.604167
0.591667
0.583333
0.583333
0.583333
0.575000
0.575000
0.566667
0.566667
0.570833
0.575000
0.570833
0.570833
0.579167
0.579167
0.566667
0.300000
0.270833
0.558333
1.120833
0.558333
0.554167
0.550000
0.550000
0.545833
0.554167
0.558333
0.558333
0.554167
0.550000
0.562500
0.558333
0.570833
0.562500
0.558333
0.558333
0.570833
0.570833
0.566667
0.566667
0.566667
0.570833
0.566667
0.562500
0.566667
0.566667
0.579167
0.575000
0.579167
0.575000
0.220833
0.458333
0.470833
0.566667
0.570833
0.558333
0.558333
0.558333
0.554167
0.554167
0.550000
0.550000
0.550000
0.545833
0.554167
0.558333
0.550000
0.554167
0.558333
0.554167
0.554167
0.550000
0.550000
0.554167
0.554167
0.558333
0.554167
0.566667
0.566667
0.570833
0.570833
0.570833
0.579167
0.579167
0.575000
0.579167
0.725000
0.216667
0.783333
0.570833
0.570833
0.570833
0.570833
0.562500
0.566667
0.566667
0.562500
0.562500
0.566667
0.562500
0.562500
0.558333
0.558333
0.554167
0.558333
0.562500
0.562500
0.562500
0.562500
0.562500
0.566667
0.566667
0.579167
0.570833
0.566667
0.562500
0.791667
0.566667
0.320833
0.554167
0.558333
0.554167
0.550000
0.554167
0.550000
0.554167
0.558333
0.550000
0.558333
0.558333
0.558333
0.554167
0.558333
0.558333
0.562500
0.562500
0.562500
0.562500
0.566667
0.558333
0.562500
0.562500
0.566667
0.562500
0.570833
0.579167
0.562500
0.712500
0.433333
0.558333
0.566667
0.562500
0.562500
0.558333
0.554167
0.558333
0.550000
0.558333
0.550000
0.554167
0.550000
0.550000
0.554167
0.554167
0.550000
0.558333
0.558333
0.558333
0.558333
0.558333
0.562500
0.562500
0.566667
0.566667
0.575000
0.579167
0.579167
0.570833
0.566667
0.570833
0.566667
0.562500
0.570833
0.566667
0.562500
0.570833
0.362500
0.208333
0.566667
0.579167
0.575000
0.575000
0.562500
0.433333
0.695833
0.570833
0.558333
0.558333
0.558333
0.562500
0.554167
0.558333
0.558333
0.562500
0.566667
0.570833
0.562500
0.562500
0.570833
0.566667
0.566667
0.570833
0.579167
0.575000
0.583333
0.583333
0.583333
0.575000
0.500000
0.320833
