0.604167
0.608333
0.600000
0.612500
0.608333
0.608333
0.600000
0.604167
0.612500
0.616667
0.608333
0.604167
0.604167
0.604167
0.608333
0.600000
0.604167
0.600000
0.616667
0.616667
0.612500
0.604167
0.604167
0.612500
0.608333
0.604167
0.608333
0.608333
0.608333
0.612500
0.612500
0.612500
0.362500
0.237500
0.604167
0.291667
0.308333
0.600000
0.587500
0.591667
0.200000
0.379167
0.437500
1.295833
0.570833
0.570833
0.570833
0.554167
0.258333
0.316667
0.562500
0.587500
0.095833
0.441667
0.562500
0.558333
0.550000
0.554167
0.554167
0.545833
0.545833
0.541667
0.545833
0.537500
0.545833
0.541667
0.545833
0.541667
0.541667
0.550000
0.754167
0.466667
0.408333
0.545833
0.545833
0.541667
0.537500
0.541667
0.537500
0.541667
0.533333
0.537500
0.541667
0.537500
0.537500
0.541667
0.541667
0.545833
0.541667
0.541667
0.541667
0.550000
0.258333
0.391667
0.183333
0.254167
0.541667
0.537500
0.541667
0.537500
0.537500
0.529167
0.529167
0.525000
0.529167
0.391667
0.670833
0.525000
0.529167
0.200000
0.850000
0.525000
0.520833
0.520833
0.525000
0.520833
0.520833
0.525000
0.520833
0.525000
0.529167
0.525000
0.520833
0.525000
0.525000
0.520833
0.520833
0.520833
0.520833
0.529167
0.383333
0.641667
0.516667
0.516667
0.512500
0.508333
0.508333
0.504167
0.508333
0.512500
0.508333
0.508333
0.512500
0.512500
0.516667
0.512500
0.516667
0.516667
0.520833
0.512500
0.516667
0.516667
0.520833
0.520833
0.520833
0.516667
0.520833
0.525000
0.525000
0.525000
0.520833
0.529167
0.529167
0.520833
0.525000
0.633333
0.420833
0.533333
0.529167
0.529167
0.529167
0.529167
0.525000
0.525000
0.520833
0.525000
0.516667
0.520833
0.516667
0.516667
0.516667
0.516667
0.516667
0.516667
0.516667
0.525000
0.512500
0.520833
0.533333
0.520833
0.525000
0.529167
0.525000
0.541667
0.537500
0.541667
0.533333
0.537500
0.537500
0.533333
0.537500
0.541667
0.533333
0.537500
0.541667
0.533333
0.537500
0.541667
0.537500
0.537500
0.541667
0.537500
0.537500
0.541667
0.533333
0.537500
0.541667
0.541667
0.545833
0.654167
0.412500
0.537500
0.537500
0.312500
0.225000
0.562500
0.487500
0.520833
0.520833
0.516667
0.308333
0.216667
0.508333
0.204167
0.445833
0.370833
0.525000
0.504167
0.512500
0.508333
0.508333
0.508333
0.512500
0.508333
0.512500
0.512500
0.508333
0.512500
0.504167
0.258333
0.262500
0.491667
0.504167
0.504167
0.504167
0.504167
0.504167
0.504167
0.508333
0.504167
0.508333
0.512500
0.508333
0.508333
0.512500
0.512500
0.616667
0.400000
0.512500
0.508333
0.512500
0.512500
0.508333
0.516667
0.512500
0.516667
0.516667
0.512500
0.516667
0.516667
0.516667
0.516667
0.512500
0.516667
0.516667
0.520833
0.512500
0.512500
0.516667
0.516667
0.516667
0.516667
0.520833
0.516667
0.525000
0.525000
0.520833
0.529167
0.525000
0.525000
0.537500
0.537500
0.537500
0.533333
0.533333
0.541667
0.537500
0.545833
0.533333
0.533333
0.537500
0.537500
0.537500
0.537500
0.541667
0.541667
0.541667
0.541667
0.537500
0.325000
0.758333
0.541667
0.533333
0.533333
0.533333
0.533333
0.529167
0.529167
0.520833
0.525000
0.520833
0.520833
0.529167
0.525000
0.520833
0.520833
0.520833
0.525000
0.187500
0.329167
0.529167
0.525000
0.520833
0.525000
0.529167
0.525000
0.525000
0.525000
0.520833
0.525000
0.520833
0.520833
0.525000
0.525000
0.525000
0.525000
0.525000
0.529167
0.525000
0.525000
0.529167
0.520833
0.700000
0.883333
0.520833
0.525000
0.520833
0.525000
0.520833
0.520833
0.525000
0.520833
0.525000
0.520833
0.520833
0.520833
0.525000
0.520833
0.525000
0.520833
0.525000
0.520833
0.520833
0.529167
0.520833
0.520833
0.525000
0.520833
0.525000
0.525000
0.525000
0.520833
0.529167
0.529167
0.533333
0.533333
0.533333
0.537500
0.533333
0.529167
0.537500
0.537500
0.533333
0.533333
0.533333
0.533333
0.533333
0.533333
0.537500
0.533333
0.533333
0.541667
0.533333
0.537500
0.533333
0.533333
0.537500
0.537500
0.537500
0.533333
0.533333
0.537500
0.533333
0.537500
0.529167
0.541667
0.533333
0.541667
0.537500
0.537500
0.541667
0.545833
0.545833
0.541667
0.541667
0.545833
0.541667
0.545833
0.537500
0.545833
0.541667
0.545833
0.545833
0.541667
0.541667
0.545833
0.733333
0.354167
0.537500
0.545833
0.545833
0.545833
0.541667
0.541667
0.541667
0.533333
0.541667
0.537500
0.537500
0.541667
0.541667
0.537500
0.541667
0.533333
0.541667
0.541667
0.533333
0.533333
0.537500
0.541667
0.537500
0.541667
0.541667
0.541667
0.545833
0.550000
0.545833
0.541667
0.545833
0.545833
0.541667
0.550000
0.545833
0.545833
0.554167
0.545833
0.541667
0.545833
0.545833
0.550000
0.545833
0.545833
0.545833
0.541667
0.550000
0.545833
0.550000
0.550000
0.545833
0.545833
0.550000
0.683333
0.291667
0.300000
0.358333
0.533333
0.529167
0.537500
0.533333
0.533333
0.533333
0.537500
0.537500
0.537500
0.533333
0.533333
0.533333
0.533333
0.533333
0.533333
0.525000
0.529167
0.520833
0.529167
0.525000
0.525000
0.520833
0.525000
0.525000
0.516667
0.525000
0.525000
0.520833
0.525000
0.525000
0.520833
0.529167
0.525000
0.529167
0.529167
0.525000
0.529167
0.533333
0.529167
0.529167
0.529167
0.533333
0.525000
0.416667
0.637500
0.520833
0.445833
0.604167
0.520833
0.516667
0.512500
0.512500
0.512500
0.508333
0.516667
0.516667
0.520833
0.516667
0.679167
0.387500
0.491667
0.512500
0.520833
0.525000
0.304167
0.733333
0.516667
0.525000
0.529167
0.525000
0.533333
0.529167
0.541667
0.783333
0.200000
0.629167
0.537500
0.529167
0.533333
0.533333
0.537500
0.541667
0.537500
0.658333
0.483333
0.475000
0.545833
0.545833
0.537500
0.533333
0.533333
0.529167
0.525000
0.520833
0.212500
0.300000
0.508333
0.508333
0.508333
0.495833
0.504167
0.500000
0.487500
1.000000
0.500000
0.504167
0.495833
0.500000
0.500000
0.500000
0.500000
0.495833
0.500000
0.504167
0.500000
0.500000
0.504167
0.508333
0.504167
0.504167
0.508333
0.504167
0.504167
0.508333
0.504167
0.504167
0.500000
0.508333
0.500000
0.508333
0.500000
0.500000
0.500000
0.495833
0.500000
0.500000
0.495833
0.495833
0.491667
0.495833
0.495833
0.495833
0.495833
0.495833
0.500000
0.500000
0.504167
0.504167
0.504167
0.500000
0.504167
0.500000
0.504167
0.504167
0.191667
0.216667
0.600000
0.504167
0.508333
0.508333
0.508333
0.508333
0.504167
0.508333
0.516667
0.512500
0.512500
0.512500
0.520833
0.516667
0.520833
0.508333
0.158333
0.158333
0.716667
0.533333
0.529167
0.533333
0.529167
0.520833
0.520833
0.529167
0.633333
0.412500
0.516667
0.516667
0.516667
0.512500
0.512500
0.508333
0.516667
0.512500
0.512500
0.520833
0.512500
0.516667
0.516667
0.520833
0.516667
0.512500
0.516667
0.520833
0.516667
0.512500
0.512500
0.520833
0.520833
0.520833
0.516667
0.520833
0.516667
0.516667
0.520833
0.520833
0.516667
0.520833
0.516667
0.516667
0.516667
0.516667
0.516667
0.420833
0.641667
0.525000
0.537500
0.537500
0.541667
0.545833
0.541667
0.533333
0.537500
0.537500
0.537500
0.541667
0.541667
0.529167
0.529167
0.533333
0.529167
0.533333
0.541667
0.545833
0.554167
0.554167
0.266667
0.275000
0.537500
0.533333
0.529167
0.525000
0.516667
0.516667
0.512500
0.504167
0.508333
0.158333
0.345833
0.504167
0.504167
0.500000
0.491667
0.495833
0.495833
0.491667
0.491667
0.487500
0.487500
0.487500
0.487500
0.487500
0.487500
0.487500
0.495833
0.491667
0.487500
0.491667
0.495833
0.491667
0.495833
0.500000
0.495833
0.491667
0.979167
0.487500
0.483333
0.487500
0.487500
0.487500
0.483333
0.487500
0.487500
0.487500
0.483333
0.487500
0.483333
0.483333
0.487500
0.483333
0.483333
0.487500
0.487500
0.487500
0.491667
0.491667
0.491667
0.495833
0.491667
0.491667
0.491667
0.491667
0.495833
0.491667
0.495833
0.491667
0.495833
0.491667
0.491667
0.495833
0.491667
0.495833
0.491667
0.495833
0.491667
0.487500
0.491667
0.495833
0.491667
0.495833
0.491667
0.491667
0.495833
0.491667
0.495833
0.495833
0.491667
0.495833
0.495833
0.495833
0.500000
0.495833
0.500000
0.495833
0.500000
0.500000
0.495833
0.495833
0.500000
0.495833
0.495833
0.500000
0.500000
0.500000
0.504167
0.500000
0.504167
0.508333
0.404167
0.783333
0.329167
0.508333
0.508333
0.508333
0.508333
0.508333
0.241667
0.262500
0.508333
0.504167
0.512500
0.508333
0.504167
0.500000
0.508333
0.500000
0.500000
0.504167
0.500000
0.500000
0.491667
0.495833
0.495833
0.500000
0.495833
0.500000
0.495833
0.495833
0.500000
0.500000
0.495833
0.500000
0.491667
0.500000
0.495833
0.491667
0.500000
0.495833
0.495833
0.495833
0.495833
0.495833
0.504167
0.500000
0.495833
0.495833
0.495833
0.495833
0.491667
0.495833
0.495833
0.495833
0.495833
0.495833
0.495833
0.500000
0.500000
0.504167
0.500000
0.495833
0.500000
0.500000
0.370833
0.195833
0.433333
0.500000
0.495833
0.504167
0.504167
0.500000
0.500000
0.504167
0.504167
0.500000
0.500000
0.500000
0.500000
0.504167
0.495833
0.500000
0.495833
0.500000
0.504167
0.495833
0.504167
0.504167
0.508333
0.508333
0.508333
0.508333
0.512500
0.512500
0.512500
0.512500
0.508333
0.508333
0.512500
0.508333
0.508333
0.500000
0.504167
0.504167
0.504167
0.504167
0.504167
0.262500
0.750000
0.508333
0.500000
0.175000
0.329167
0.504167
0.500000
0.500000
0.495833
0.500000
0.500000
0.500000
0.504167
0.504167
0.500000
0.504167
0.508333
0.504167
0.500000
0.495833
0.500000
0.500000
0.500000
0.491667
0.495833
0.495833
0.500000
0.495833
0.491667
0.500000
0.500000
0.495833
0.500000
0.504167
0.504167
0.504167
0.504167
0.504167
0.508333
0.508333
0.504167
0.504167
0.500000
0.500000
0.495833
0.508333
0.500000
0.504167
0.500000
0.504167
0.504167
0.508333
0.504167
0.504167
0.500000
0.500000
0.500000
0.504167
0.504167
0.504167
0.504167
0.504167
0.508333
0.508333
0.508333
0.420833
0.591667
0.516667
0.516667
0.516667
0.516667
0.508333
0.512500
0.512500
0.516667
0.508333
0.508333
0.500000
0.512500
0.504167
0.504167
0.500000
0.500000
0.504167
0.500000
0.504167
0.495833
0.500000
0.325000
0.670833
0.495833
0.500000
0.500000
0.500000
0.495833
0.495833
0.500000
0.500000
0.491667
0.495833
0.495833
0.495833
0.491667
0.495833
0.495833
0.495833
0.495833
0.495833
0.487500
0.491667
0.491667
0.487500
0.491667
0.495833
0.487500
0.491667
0.491667
0.495833
0.733333
0.237500
0.979167
0.487500
0.487500
0.487500
0.695833
0.495833
0.762500
0.495833
0.491667
0.487500
0.491667
0.491667
0.495833
0.491667
0.500000
0.491667
0.495833
0.495833
0.495833
0.491667
0.245833
0.441667
0.308333
0.491667
0.491667
0.487500
0.491667
0.487500
0.487500
0.487500
0.491667
0.479167
0.491667
0.487500
0.483333
0.483333
0.479167
0.483333
0.487500
0.487500
0.483333
0.487500
0.487500
0.591667
0.875000
0.491667
0.483333
0.483333
0.487500
0.487500
0.487500
0.479167
0.491667
0.491667
0.491667
0.495833
0.491667
0.495833
0.504167
0.500000
0.504167
0.504167
0.495833
0.500000
0.500000
0.700000
0.141667
0.525000
0.616667
0.495833
0.495833
0.495833
0.491667
0.495833
0.500000
0.495833
0.500000
0.491667
0.495833
0.500000
0.495833
0.495833
0.500000
0.495833
0.500000
0.495833
0.495833
0.495833
0.495833
0.504167
0.500000
0.491667
0.495833
0.316667
0.175000
0.495833
0.225000
0.766667
0.491667
0.495833
0.495833
0.491667
0.495833
0.495833
0.495833
0.487500
0.495833
0.495833
0.491667
0.491667
0.491667
0.500000
0.491667
0.495833
0.500000
0.495833
0.500000
0.504167
0.495833
0.500000
0.500000
0.495833
0.495833
0.491667
0.491667
0.491667
0.491667
0.487500
0.491667
0.491667
0.487500
