0.566667
0.562500
0.562500
0.566667
0.570833
0.566667
0.562500
0.562500
0.566667
0.575000
0.566667
0.558333
0.566667
0.566667
0.570833
0.570833
0.566667
0.562500
0.566667
0.566667
0.570833
0.570833
0.566667
0.562500
0.566667
0.566667
0.570833
0.566667
0.562500
0.562500
0.566667
0.570833
0.575000
0.566667
0.566667
0.562500
0.570833
0.487500
0.654167
0.345833
0.220833
0.566667
0.566667
0.575000
0.566667
0.566667
0.562500
0.566667
0.575000
0.562500
0.566667
0.566667
0.566667
0.570833
0.570833
0.566667
0.566667
0.566667
0.566667
0.570833
0.575000
0.566667
0.566667
0.566667
0.575000
0.566667
0.566667
0.566667
0.566667
0.570833
0.575000
0.566667
0.566667
0.566667
0.566667
0.570833
0.575000
0.566667
0.566667
0.562500
0.570833
0.575000
0.566667
0.566667
0.566667
0.304167
0.262500
0.566667
0.575000
0.566667
0.562500
0.562500
0.566667
0.566667
0.570833
0.566667
0.562500
0.562500
0.570833
0.566667
0.566667
0.562500
0.562500
0.566667
0.575000
0.566667
0.566667
0.562500
0.566667
0.566667
0.575000
0.566667
0.566667
0.562500
0.566667
0.570833
0.570833
0.562500
0.562500
0.566667
0.566667
0.570833
0.570833
0.562500
0.566667
0.562500
0.570833
0.570833
0.562500
0.562500
0.566667
0.566667
0.570833
0.562500
0.562500
0.562500
0.566667
0.570833
0.570833
0.566667
0.566667
0.566667
0.566667
0.570833
0.575000
0.566667
0.562500
0.566667
0.570833
0.575000
0.566667
0.562500
0.566667
0.566667
0.570833
0.566667
0.562500
0.566667
0.570833
0.575000
0.562500
0.570833
0.566667
0.570833
0.345833
0.225000
0.558333
0.566667
0.575000
0.566667
0.562500
0.575000
0.562500
0.566667
1.137500
0.562500
0.566667
0.562500
0.566667
0.604167
0.533333
0.562500
0.566667
0.562500
0.570833
0.570833
0.562500
0.566667
0.562500
0.566667
0.570833
0.575000
0.562500
0.566667
0.562500
0.566667
0.575000
0.562500
0.566667
0.612500
0.520833
0.570833
0.566667
0.566667
0.566667
0.566667
0.562500
0.566667
0.570833
0.566667
0.562500
0.566667
0.570833
0.570833
0.562500
0.562500
0.566667
0.570833
0.566667
0.562500
0.566667
0.566667
0.575000
0.558333
0.562500
0.566667
0.570833
0.570833
0.558333
0.562500
0.562500
0.566667
0.562500
0.558333
0.558333
0.562500
0.566667
0.562500
0.558333
0.558333
0.562500
0.566667
0.558333
0.562500
0.558333
0.566667
0.566667
0.558333
0.562500
0.558333
0.562500
0.566667
0.562500
0.558333
0.558333
0.566667
0.570833
0.558333
0.562500
0.562500
0.566667
0.566667
0.570833
0.562500
0.566667
0.562500
0.570833
0.570833
0.562500
0.566667
0.562500
0.570833
0.575000
0.566667
0.566667
0.566667
0.570833
0.575000
0.575000
0.566667
0.566667
0.570833
0.570833
0.575000
0.570833
0.566667
0.570833
0.566667
0.570833
0.575000
0.570833
0.566667
0.566667
0.566667
0.575000
0.566667
0.566667
0.566667
0.566667
0.566667
0.575000
0.566667
0.562500
0.562500
0.566667
0.566667
0.570833
0.575000
0.562500
0.566667
0.566667
0.566667
0.566667
0.570833
0.566667
0.566667
0.566667
0.562500
0.570833
0.570833
0.566667
0.562500
0.566667
0.566667
0.570833
0.566667
0.562500
0.566667
0.566667
0.566667
0.575000
0.562500
0.566667
0.566667
0.566667
0.575000
0.570833
0.566667
0.566667
0.566667
0.570833
0.575000
0.566667
0.566667
0.566667
0.566667
0.575000
0.570833
0.566667
0.566667
0.566667
0.566667
0.570833
0.566667
0.304167
0.258333
0.562500
0.566667
0.570833
0.570833
0.566667
0.562500
0.562500
0.570833
0.575000
0.566667
0.562500
0.562500
0.566667
0.566667
0.575000
0.562500
0.566667
0.562500
0.562500
0.566667
0.575000
0.562500
0.562500
0.566667
0.566667
0.566667
0.575000
0.562500
0.566667
0.566667
0.566667
0.566667
0.575000
0.562500
0.566667
0.562500
0.566667
0.562500
0.570833
0.566667
0.562500
0.566667
0.562500
0.566667
0.566667
0.570833
0.562500
0.566667
0.562500
0.570833
0.300000
0.270833
0.566667
0.566667
0.412500
0.725000
0.566667
0.562500
0.566667
0.566667
0.570833
0.562500
0.562500
0.562500
0.566667
0.566667
0.575000
0.562500
0.566667
0.566667
0.562500
0.570833
0.570833
0.566667
0.566667
0.566667
0.566667
0.570833
0.575000
0.575000
0.575000
0.566667
0.566667
0.570833
0.575000
0.575000
0.570833
0.570833
0.566667
0.570833
0.570833
0.575000
0.566667
0.566667
0.570833
0.566667
0.570833
0.575000
0.570833
0.566667
0.566667
0.566667
0.570833
0.575000
0.566667
0.566667
0.566667
0.566667
0.570833
0.575000
0.570833
0.566667
0.562500
0.575000
0.570833
0.562500
0.566667
0.566667
0.570833
0.570833
0.566667
0.566667
0.562500
0.566667
0.570833
0.575000
0.566667
0.566667
0.566667
0.570833
0.570833
0.575000
0.566667
0.566667
0.566667
0.566667
0.575000
0.575000
0.562500
0.570833
0.566667
0.566667
0.579167
0.575000
0.570833
0.566667
0.570833
0.566667
0.575000
0.575000
0.575000
0.566667
0.566667
0.570833
0.570833
0.570833
0.575000
0.570833
0.566667
0.566667
0.566667
0.570833
0.575000
0.570833
0.566667
0.566667
0.570833
0.570833
0.579167
0.566667
0.570833
0.570833
0.570833
0.575000
0.570833
0.570833
0.566667
0.570833
0.629167
0.512500
0.566667
0.566667
0.570833
0.570833
0.575000
0.566667
0.566667
0.566667
0.570833
0.570833
0.579167
0.570833
0.570833
0.329167
0.241667
0.570833
0.575000
0.579167
0.570833
0.570833
0.570833
0.575000
0.575000
0.354167
0.216667
0.566667
0.566667
0.575000
0.575000
0.566667
0.570833
0.570833
0.575000
0.575000
0.570833
0.570833
0.570833
0.579167
0.570833
0.570833
0.570833
0.575000
0.362500
0.287500
0.491667
0.275000
0.300000
0.566667
0.575000
0.575000
0.575000
0.562500
0.570833
0.308333
0.258333
0.575000
0.566667
0.566667
0.566667
0.570833
0.575000
0.570833
0.566667
0.566667
0.566667
0.570833
0.654167
0.137500
0.225000
0.683333
0.387500
0.758333
0.566667
0.566667
0.566667
0.570833
0.570833
0.566667
0.562500
0.566667
0.566667
0.570833
0.566667
0.562500
0.566667
0.566667
0.575000
0.562500
0.566667
0.566667
0.566667
0.570833
0.570833
0.566667
0.562500
0.566667
0.570833
0.566667
0.570833
0.575000
0.566667
0.570833
0.566667
0.566667
0.575000
0.575000
0.566667
0.570833
0.566667
0.570833
0.575000
0.570833
0.566667
0.570833
0.575000
0.566667
0.566667
0.316667
0.570833
0.566667
0.575000
0.575000
0.570833
0.566667
0.570833
0.575000
0.570833
0.566667
0.575000
0.570833
0.570833
0.575000
0.570833
0.570833
0.570833
0.570833
0.575000
0.575000
0.566667
0.570833
0.570833
0.570833
0.579167
0.566667
0.570833
0.570833
0.570833
0.575000
0.579167
0.570833
0.570833
0.570833
0.575000
0.575000
0.570833
0.570833
0.570833
0.570833
0.570833
0.579167
0.566667
0.570833
0.570833
0.579167
0.570833
0.570833
0.566667
0.570833
0.570833
0.579167
0.566667
0.570833
0.570833
0.570833
0.579167
0.570833
0.579167
0.566667
0.570833
0.570833
0.570833
0.570833
0.579167
0.570833
0.566667
0.570833
0.566667
0.575000
0.575000
0.575000
0.566667
0.566667
0.566667
0.575000
0.575000
0.566667
0.566667
0.570833
0.566667
0.570833
0.575000
0.570833
0.566667
0.566667
0.566667
0.570833
0.579167
0.566667
0.566667
0.570833
0.570833
0.570833
0.583333
0.566667
0.570833
0.570833
0.570833
0.579167
0.579167
0.570833
0.566667
0.570833
0.570833
0.575000
0.570833
0.575000
0.570833
0.566667
0.575000
0.579167
0.566667
0.566667
0.570833
0.570833
0.579167
0.570833
0.570833
0.570833
0.570833
0.579167
0.566667
0.575000
0.566667
0.570833
0.575000
0.579167
0.566667
0.570833
0.570833
0.570833
0.579167
0.566667
0.570833
0.566667
0.570833
0.579167
0.566667
0.566667
0.570833
0.570833
0.575000
0.575000
0.441667
0.695833
0.566667
0.570833
0.575000
0.566667
0.566667
0.566667
0.566667
0.575000
0.566667
0.566667
0.566667
0.570833
0.575000
0.566667
0.566667
0.566667
0.570833
0.566667
0.570833
0.566667
0.570833
0.570833
0.566667
0.570833
0.570833
0.566667
0.575000
0.570833
0.570833
0.566667
0.570833
0.570833
0.575000
0.575000
0.566667
0.566667
0.570833
0.570833
0.579167
0.566667
0.570833
0.566667
0.570833
0.575000
0.575000
0.566667
0.566667
0.566667
0.570833
0.579167
0.566667
0.570833
0.570833
0.479167
0.762500
0.475000
0.254167
0.312500
0.566667
0.570833
0.579167
0.570833
0.570833
0.570833
0.304167
0.208333
0.420833
0.312500
0.466667
0.558333
0.566667
0.566667
0.570833
0.566667
0.566667
0.562500
0.566667
0.566667
0.570833
0.566667
0.562500
0.562500
0.570833
0.570833
0.562500
0.566667
0.562500
0.570833
0.566667
0.566667
0.558333
0.570833
0.570833
0.570833
0.562500
0.566667
0.766667
1.133333
0.375000
0.566667
0.566667
0.575000
0.562500
0.408333
0.729167
0.254167
0.370833
0.508333
0.566667
0.562500
0.570833
0.416667
0.725000
0.566667
0.566667
0.570833
0.837500
0.437500
0.433333
0.583333
0.562500
0.566667
0.570833
0.570833
0.433333
0.820833
0.400000
0.275000
0.204167
0.558333
0.733333
0.441667
1.258333
0.554167
0.562500
0.562500
0.566667
0.566667
0.566667
0.558333
0.562500
0.562500
0.570833
0.558333
0.558333
0.562500
0.558333
0.291667
0.337500
0.500000
0.558333
0.558333
0.562500
0.566667
0.566667
0.558333
0.558333
0.562500
0.562500
0.566667
0.562500
0.558333
0.562500
0.562500
0.566667
0.562500
0.558333
0.558333
0.562500
0.562500
0.566667
0.558333
0.558333
0.558333
0.675000
0.466667
0.433333
0.112500
0.400000
0.708333
0.562500
0.566667
0.558333
0.558333
0.558333
0.645833
0.425000
0.587500
0.216667
0.362500
0.470833
0.712500
0.358333
0.495833
0.450000
0.591667
0.445833
0.387500
0.554167
0.429167
0.429167
1.108333
0.504167
0.500000
0.583333
0.362500
0.558333
0.695833
0.429167
0.558333
0.558333
0.562500
0.566667
0.558333
0.558333
0.562500
0.562500
0.562500
0.558333
0.554167
0.562500
0.566667
0.558333
0.558333
0.558333
0.562500
0.562500
0.562500
0.558333
0.558333
0.558333
0.558333
0.558333
0.558333
0.558333
0.562500
0.562500
0.562500
0.558333
0.554167
0.562500
0.566667
0.562500
0.562500
0.558333
0.562500
0.566667
0.558333
0.562500
0.558333
0.558333
0.566667
0.558333
0.558333
0.558333
0.558333
0.562500
0.558333
0.558333
0.558333
0.558333
0.562500
0.554167
0.558333
0.558333
0.558333
0.562500
0.554167
0.558333
0.558333
0.558333
0.558333
0.558333
0.554167
0.558333
0.562500
0.554167
0.558333
0.558333
0.558333
0.558333
0.558333
0.558333
0.558333
0.554167
0.562500
0.562500
0.558333
0.554167
0.558333
0.558333
0.562500
0.562500
0.554167
0.554167
0.558333
0.558333
0.558333
0.562500
0.558333
0.554167
0.554167
0.558333
0.558333
0.566667
0.558333
0.554167
0.558333
0.558333
0.558333
0.566667
0.558333
0.558333
0.558333
0.558333
0.566667
0.562500
