1.295833
1.070833
0.958333
0.900000
0.887500
1.362500
0.983333
0.858333
0.883333
0.770833
1.287500
1.066667
0.375000
0.333333
0.333333
0.583333
0.608333
1.395833
0.475000
0.345833
0.354167
0.383333
0.650000
0.308333
1.354167
0.466667
0.333333
0.316667
0.333333
0.383333
0.387500
0.379167
0.366667
0.445833
0.437500
0.366667
0.341667
0.345833
0.458333
0.366667
0.325000
0.387500
0.350000
0.325000
0.241667
0.604167
0.387500
0.358333
0.354167
0.391667
0.391667
0.350000
0.320833
0.354167
0.358333
0.345833
0.337500
0.337500
0.358333
0.354167
0.233333
0.700000
0.237500
0.304167
0.358333
0.370833
0.345833
0.345833
0.345833
0.366667
0.354167
0.345833
0.387500
0.391667
0.379167
0.375000
0.329167
0.333333
0.362500
0.379167
0.375000
0.333333
0.358333
0.387500
0.237500
0.516667
0.391667
0.387500
0.387500
0.337500
0.300000
0.341667
0.362500
0.395833
0.400000
0.408333
0.395833
0.370833
1.729167
1.187500
1.245833
1.295833
1.070833
1.004167
1.012500
0.983333
0.970833
0.962500
0.937500
0.912500
0.895833
1.304167
0.595833
0.233333
0.325000
0.320833
0.337500
0.345833
0.308333
1.341667
0.454167
0.354167
0.350000
0.425000
0.379167
0.354167
0.345833
0.325000
0.320833
0.325000
0.337500
0.350000
0.550000
0.379167
0.316667
0.354167
0.362500
0.345833
0.345833
0.354167
0.375000
0.354167
0.345833
0.350000
0.354167
0.383333
0.383333
0.366667
0.358333
0.354167
0.358333
0.375000
0.379167
0.400000
0.358333
0.345833
0.345833
0.341667
0.383333
0.400000
0.466667
1.695833
1.050000
1.345833
0.466667
0.333333
0.304167
0.308333
0.358333
0.366667
0.345833
0.350000
0.350000
0.341667
0.354167
0.370833
0.337500
0.341667
0.379167
0.245833
0.475000
0.375000
0.345833
0.325000
0.379167
0.375000
0.350000
0.341667
0.341667
0.341667
0.358333
0.645833
0.279167
0.370833
0.358333
0.354167
0.350000
0.350000
0.341667
0.341667
0.350000
0.350000
0.370833
0.350000
0.341667
0.366667
0.408333
0.375000
0.487500
0.416667
0.395833
0.245833
0.491667
0.395833
0.383333
0.366667
0.358333
0.400000
0.375000
0.358333
0.345833
0.354167
0.358333
0.362500
0.354167
0.358333
0.233333
0.483333
0.362500
0.358333
0.400000
0.354167
0.341667
0.358333
0.333333
0.366667
0.412500
0.379167
0.354167
0.358333
0.354167
0.341667
0.375000
0.350000
0.325000
0.383333
0.375000
0.362500
0.387500
0.595833
0.245833
0.329167
0.370833
0.237500
0.366667
0.512500
0.354167
0.350000
0.350000
0.387500
0.708333
0.341667
0.387500
0.375000
0.387500
0.237500
0.516667
0.375000
0.379167
0.237500
0.370833
0.375000
0.558333
0.366667
0.370833
0.354167
0.345833
0.379167
0.370833
0.462500
0.379167
0.341667
0.366667
0.345833
0.333333
0.350000
0.370833
0.366667
0.400000
0.475000
0.387500
0.329167
0.358333
0.404167
0.241667
0.445833
0.345833
0.337500
0.408333
0.391667
0.358333
0.366667
0.362500
0.333333
0.350000
0.233333
0.354167
0.558333
0.237500
0.487500
0.379167
0.366667
0.370833
0.379167
0.366667
0.358333
0.358333
0.375000
0.420833
0.412500
0.533333
0.420833
0.387500
0.429167
0.433333
0.241667
0.425000
0.379167
0.362500
0.304167
0.308333
0.387500
0.383333
0.366667
0.358333
0.358333
0.345833
0.475000
0.379167
0.341667
0.333333
0.341667
0.350000
0.400000
0.233333
0.450000
0.370833
0.362500
0.366667
0.395833
0.679167
0.279167
0.387500
0.375000
0.370833
0.379167
0.391667
0.233333
0.445833
0.375000
0.375000
0.354167
0.383333
0.400000
0.375000
0.341667
0.345833
0.316667
0.325000
0.225000
0.375000
0.450000
0.350000
0.362500
0.375000
0.379167
0.391667
0.404167
0.375000
0.404167
0.437500
0.237500
0.383333
0.491667
0.670833
0.266667
1.612500
1.016667
1.216667
1.358333
1.041667
0.916667
1.012500
1.304167
1.062500
0.958333
0.891667
0.995833
1.233333
1.058333
0.908333
0.920833
1.291667
1.095833
0.475000
0.233333
0.354167
0.250000
0.450000
0.354167
1.620833
1.041667
0.879167
0.912500
0.358333
0.333333
0.370833
0.537500
0.520833
0.300000
0.358333
0.350000
0.554167
0.270833
0.341667
0.341667
0.337500
0.345833
0.366667
0.412500
0.366667
0.245833
0.416667
0.345833
0.400000
0.395833
0.366667
0.341667
0.341667
0.354167
0.237500
0.462500
0.366667
0.579167
0.137500
0.483333
0.337500
0.341667
0.345833
0.429167
0.354167
0.304167
0.312500
0.375000
0.375000
0.354167
0.358333
0.362500
0.362500
0.354167
0.362500
0.358333
0.362500
0.358333
0.362500
0.362500
0.362500
0.362500
0.362500
0.362500
0.362500
0.366667
0.362500
0.358333
0.366667
0.362500
0.366667
0.358333
0.358333
0.366667
0.366667
0.358333
0.362500
0.370833
0.366667
0.358333
0.370833
1.754167
1.370833
1.100000
1.041667
1.004167
0.337500
0.329167
0.316667
0.333333
0.362500
0.250000
0.445833
0.391667
0.354167
0.329167
0.350000
0.366667
0.370833
0.437500
0.441667
0.350000
0.316667
0.395833
0.395833
0.395833
0.412500
0.379167
0.341667
0.329167
0.337500
0.337500
0.375000
0.404167
0.375000
0.358333
0.375000
0.379167
0.366667
0.358333
0.350000
0.337500
0.354167
0.387500
0.404167
0.408333
0.345833
0.358333
0.370833
0.341667
0.375000
0.358333
0.408333
0.579167
0.245833
0.337500
0.329167
0.354167
0.425000
0.375000
0.345833
0.350000
0.341667
0.362500
0.370833
0.400000
0.370833
0.362500
0.358333
0.233333
0.445833
0.375000
0.616667
0.537500
0.333333
0.350000
0.304167
0.325000
0.354167
0.350000
0.354167
0.345833
0.341667
0.362500
0.366667
0.362500
0.358333
0.354167
0.362500
0.366667
0.350000
0.350000
0.362500
0.383333
0.379167
0.391667
0.420833
0.379167
0.379167
0.404167
0.375000
0.475000
1.633333
1.125000
0.995833
1.433333
1.029167
0.945833
1.320833
1.033333
0.908333
1.350000
0.987500
1.325000
1.045833
0.366667
0.687500
0.329167
0.379167
0.375000
0.375000
0.254167
0.729167
0.154167
0.720833
0.512500
0.541667
1.225000
0.454167
0.383333
0.508333
0.258333
0.250000
0.412500
0.379167
0.370833
0.337500
0.337500
0.437500
0.383333
0.370833
0.350000
0.341667
0.354167
0.354167
0.366667
0.550000
0.250000
0.337500
0.366667
0.358333
0.375000
0.366667
0.370833
0.375000
0.358333
0.333333
0.337500
0.345833
0.358333
0.354167
0.350000
0.358333
0.362500
0.362500
0.370833
0.387500
0.383333
0.362500
0.341667
0.354167
0.358333
0.325000
0.358333
0.379167
0.391667
0.358333
0.358333
0.350000
0.366667
0.233333
0.566667
0.375000
0.675000
0.283333
0.391667
0.366667
0.358333
0.237500
0.470833
0.395833
0.358333
0.391667
0.379167
0.341667
0.354167
0.345833
0.341667
0.362500
0.383333
0.345833
0.333333
0.354167
0.337500
0.320833
0.337500
0.237500
0.504167
0.387500
0.383333
0.366667
0.354167
0.229167
0.537500
0.375000
0.412500
0.400000
0.329167
0.329167
0.333333
0.308333
0.341667
0.358333
0.316667
0.358333
0.433333
0.441667
0.341667
0.354167
0.370833
0.383333
0.387500
0.370833
0.366667
0.383333
0.370833
0.650000
0.408333
0.583333
0.275000
0.620833
0.258333
0.337500
0.350000
0.358333
0.358333
0.387500
0.375000
0.358333
0.341667
0.375000
0.387500
0.429167
0.379167
0.341667
0.375000
0.358333
0.233333
0.475000
0.325000
0.362500
0.370833
0.370833
0.350000
0.345833
0.345833
0.358333
0.362500
0.429167
0.404167
0.333333
0.354167
0.375000
1.629167
1.595833
1.050000
0.941667
0.975000
0.987500
1.012500
1.004167
0.945833
0.912500
1.345833
1.012500
0.945833
1.254167
0.916667
0.900000
1.029167
1.225000
0.591667
0.625000
0.520833
0.633333
0.283333
0.458333
0.341667
0.329167
0.345833
0.325000
0.316667
0.341667
0.604167
0.154167
0.491667
0.350000
0.354167
0.375000
0.350000
0.337500
0.341667
0.341667
0.345833
0.345833
0.233333
0.504167
0.358333
0.387500
0.383333
0.337500
0.341667
0.404167
0.370833
0.362500
0.420833
0.475000
0.458333
0.375000
0.345833
0.329167
0.350000
0.358333
0.358333
0.329167
0.345833
0.362500
0.395833
0.383333
0.366667
0.362500
0.358333
0.358333
0.362500
0.387500
0.387500
0.362500
0.362500
0.387500
0.370833
0.370833
0.358333
0.345833
0.341667
0.345833
0.350000
0.345833
0.354167
0.354167
0.237500
0.500000
0.375000
0.375000
0.379167
0.350000
0.341667
0.366667
0.375000
0.333333
0.350000
0.358333
0.350000
0.366667
0.358333
0.366667
0.366667
0.395833
0.395833
0.366667
0.404167
0.429167
0.245833
0.466667
0.329167
0.345833
0.366667
0.362500
0.420833
0.412500
0.383333
0.350000
0.362500
1.587500
1.320833
1.154167
1.025000
0.987500
0.987500
0.929167
1.091667
1.233333
1.062500
0.895833
0.900000
1.262500
0.479167
0.354167
0.370833
0.358333
0.529167
0.329167
1.462500
0.462500
0.350000
0.354167
0.320833
0.300000
0.345833
1.158333
0.445833
0.345833
0.325000
0.325000
0.433333
0.258333
0.445833
0.341667
0.358333
0.241667
0.491667
0.366667
0.333333
0.754167
0.550000
0.491667
0.508333
0.512500
0.504167
0.512500
0.508333
0.508333
0.512500
0.508333
0.508333
0.512500
0.395833
0.625000
0.512500
0.508333
0.512500
0.508333
0.516667
0.508333
0.508333
0.512500
0.508333
0.512500
0.508333
0.508333
0.512500
0.508333
0.400000
0.620833
0.516667
0.508333
0.400000
0.512500
0.512500
0.516667
0.633333
0.516667
0.508333
0.483333
0.383333
0.625000
0.516667
0.508333
0.508333
0.512500
0.504167
0.512500
0.508333
0.516667
0.504167
0.504167
0.516667
0.500000
0.520833
0.495833
0.512500
0.508333
0.508333
0.512500
0.495833
0.516667
0.500000
0.508333
0.512500
0.504167
0.508333
0.391667
0.616667
0.512500
0.504167
0.508333
0.500000
0.504167
0.508333
0.504167
0.512500
0.387500
0.620833
0.508333
0.504167
0.508333
0.387500
0.620833
0.512500
0.500000
0.508333
0.391667
0.620833
0.504167
0.508333
0.504167
0.391667
0.616667
0.395833
0.508333
0.620833
0.387500
0.508333
0.620833
0.508333
0.504167
0.508333
0.504167
0.508333
0.504167
0.395833
0.616667
0.508333
0.504167
0.508333
0.512500
0.500000
0.508333
0.504167
0.395833
0.508333
0.616667
0.508333
0.504167
0.508333
0.500000
0.508333
0.391667
0.504167
0.616667
0.395833
0.620833
0.504167
0.504167
0.504167
0.504167
0.508333
0.504167
0.504167
0.504167
0.504167
0.504167
0.504167
0.504167
0.504167
0.508333
0.504167
0.504167
0.504167
0.500000
0.508333
0.500000
0.508333
0.500000
0.504167
0.500000
0.508333
0.504167
0.504167
0.391667
0.612500
0.508333
0.504167
0.504167
0.504167
0.495833
0.508333
0.500000
0.504167
0.504167
0.387500
0.616667
0.504167
0.504167
0.500000
0.504167
0.387500
0.616667
0.504167
0.504167
0.504167
0.500000
0.504167
0.504167
0.504167
0.500000
0.508333
0.495833
0.508333
0.500000
0.504167
0.504167
0.500000
0.500000
0.504167
0.508333
0.500000
0.500000
0.504167
0.500000
0.504167
0.504167
0.504167
0.495833
0.504167
0.504167
0.504167
0.500000
0.500000
0.504167
0.504167
0.504167
0.504167
0.495833
0.508333
0.500000
0.504167
0.500000
0.387500
0.616667
0.500000
0.512500
0.500000
0.504167
0.500000
0.500000
0.508333
0.500000
0.391667
0.495833
0.620833
0.504167
0.504167
0.504167
0.500000
0.504167
0.504167
0.504167
0.504167
0.379167
0.616667
0.504167
0.504167
0.500000
0.504167
0.495833
0.504167
0.504167
0.500000
0.504167
0.383333
0.616667
0.500000
0.500000
0.504167
0.500000
0.500000
0.383333
0.620833
0.508333
0.495833
0.508333
0.379167
0.620833
0.508333
0.383333
0.620833
0.495833
0.504167
0.500000
0.508333
0.500000
0.500000
0.500000
0.504167
0.504167
0.500000
0.504167
0.500000
0.500000
0.504167
0.508333
0.495833
0.391667
0.608333
0.508333
0.387500
0.616667
0.508333
0.375000
0.620833
0.500000
0.508333
0.495833
0.504167
0.495833
0.504167
0.504167
0.504167
0.500000
0.383333
0.616667
0.504167
0.500000
0.500000
0.504167
0.495833
0.508333
0.495833
0.504167
0.500000
0.500000
0.504167
0.495833
0.512500
0.491667
0.508333
0.379167
0.620833
0.512500
0.491667
0.512500
0.487500
0.512500
0.500000
0.500000
0.508333
0.370833
0.625000
0.495833
0.508333
0.495833
0.383333
0.620833
0.495833
0.508333
0.491667
0.391667
0.612500
0.504167
0.508333
0.491667
0.512500
0.370833
0.625000
0.495833
0.500000
0.508333
0.375000
0.625000
0.491667
0.508333
0.500000
0.500000
0.504167
0.495833
0.508333
0.379167
0.504167
0.612500
0.500000
0.508333
0.491667
0.508333
0.491667
0.508333
0.512500
0.487500
0.512500
0.370833
0.629167
0.495833
0.500000
0.395833
0.483333
0.629167
0.491667
0.508333
0.500000
0.491667
0.512500
0.487500
0.508333
0.495833
0.500000
0.504167
0.491667
0.508333
0.491667
0.508333
0.495833
0.495833
0.508333
0.487500
0.508333
0.375000
0.620833
0.495833
0.495833
0.508333
0.370833
0.625000
