0.541667
0.541667
0.541667
0.537500
0.541667
0.541667
0.541667
0.541667
0.537500
0.541667
0.545833
0.541667
0.537500
0.541667
0.541667
0.541667
0.541667
0.537500
0.537500
0.545833
0.541667
0.537500
0.541667
0.541667
0.541667
0.537500
0.541667
0.545833
0.537500
0.541667
0.541667
0.541667
0.537500
0.541667
0.537500
0.541667
0.537500
0.537500
0.541667
0.541667
0.533333
0.541667
0.537500
0.754167
0.316667
0.537500
0.541667
0.525000
0.258333
0.820833
0.533333
0.537500
0.533333
0.533333
0.533333
0.537500
0.537500
0.533333
0.533333
0.537500
0.537500
0.533333
0.537500
0.537500
0.537500
0.537500
0.537500
0.533333
0.541667
0.537500
0.408333
0.637500
0.550000
0.541667
0.537500
0.537500
0.533333
0.537500
0.537500
0.533333
0.537500
0.537500
0.537500
0.533333
0.533333
0.537500
0.537500
0.529167
0.533333
0.537500
0.537500
0.533333
0.533333
0.533333
0.537500
0.533333
0.533333
0.533333
0.533333
0.533333
0.537500
0.533333
0.533333
0.537500
0.537500
0.529167
0.537500
0.537500
0.537500
0.533333
0.533333
0.533333
0.537500
0.533333
0.537500
0.533333
0.533333
0.537500
0.537500
0.533333
0.537500
0.537500
0.537500
0.533333
0.537500
0.537500
0.537500
0.537500
0.533333
0.537500
0.541667
0.537500
0.537500
0.537500
0.541667
0.537500
0.537500
0.541667
0.541667
0.537500
0.537500
0.537500
0.541667
0.541667
0.533333
0.541667
0.537500
0.545833
0.541667
0.537500
0.541667
0.537500
0.537500
0.537500
0.541667
0.541667
0.533333
0.541667
0.541667
0.545833
0.541667
0.537500
0.541667
0.541667
0.541667
0.537500
0.541667
0.541667
0.537500
0.537500
0.541667
0.541667
0.541667
0.541667
0.537500
0.545833
0.541667
0.537500
0.541667
0.545833
0.537500
0.541667
0.541667
0.541667
0.541667
0.541667
0.537500
0.541667
0.541667
0.537500
0.541667
0.537500
0.541667
0.541667
0.537500
0.541667
0.541667
0.541667
0.537500
0.541667
0.541667
0.541667
0.537500
0.537500
0.541667
0.545833
0.537500
0.541667
0.541667
0.541667
0.541667
0.537500
0.541667
0.541667
0.541667
0.537500
0.541667
0.541667
0.545833
0.541667
0.537500
0.545833
0.541667
0.541667
0.541667
0.541667
0.541667
0.545833
0.537500
0.545833
0.541667
0.541667
0.545833
0.537500
0.541667
0.545833
0.541667
0.537500
0.541667
0.241667
0.391667
0.454167
0.187500
0.891667
0.541667
0.533333
0.537500
0.541667
0.537500
0.537500
0.537500
0.541667
0.537500
0.533333
0.541667
0.537500
0.541667
0.537500
0.541667
0.537500
0.541667
0.541667
0.537500
0.541667
0.541667
0.545833
0.541667
0.541667
0.541667
0.550000
0.541667
0.541667
0.541667
0.545833
0.545833
0.537500
0.541667
0.545833
0.541667
0.545833
0.541667
0.541667
0.545833
0.545833
0.541667
0.545833
0.545833
0.545833
0.537500
0.545833
0.541667
0.545833
0.545833
0.541667
0.545833
0.545833
0.541667
0.545833
0.541667
0.545833
0.545833
0.541667
0.541667
0.545833
0.545833
0.541667
0.541667
0.545833
0.545833
0.541667
0.541667
0.541667
0.545833
0.541667
0.541667
0.541667
0.541667
0.541667
0.541667
0.537500
0.537500
0.541667
0.545833
0.537500
0.541667
0.541667
0.545833
0.545833
0.541667
0.545833
0.541667
0.545833
0.545833
0.541667
0.541667
0.545833
0.541667
0.541667
0.541667
0.541667
0.545833
0.537500
0.545833
0.541667
0.541667
0.541667
0.541667
0.541667
0.545833
0.537500
0.541667
0.541667
0.545833
0.541667
0.541667
0.541667
0.545833
0.541667
0.541667
0.541667
0.541667
0.541667
0.537500
0.541667
0.541667
0.541667
0.537500
0.541667
0.541667
0.545833
0.541667
0.537500
0.541667
0.545833
0.541667
0.537500
0.541667
0.541667
0.541667
0.541667
0.541667
0.541667
0.545833
0.541667
0.541667
0.541667
0.545833
0.541667
0.541667
0.541667
0.545833
0.541667
0.537500
0.541667
0.541667
0.545833
0.541667
0.537500
0.541667
0.541667
0.545833
0.537500
0.545833
0.545833
0.541667
0.545833
0.541667
0.541667
0.541667
0.541667
0.537500
0.545833
0.541667
0.541667
0.545833
0.537500
0.541667
0.545833
0.541667
0.541667
0.541667
0.541667
0.545833
0.545833
0.541667
0.541667
0.545833
0.545833
0.541667
0.545833
0.545833
0.545833
0.537500
0.545833
0.545833
0.545833
0.541667
0.541667
0.545833
0.545833
0.545833
0.541667
0.545833
0.545833
0.545833
0.541667
0.545833
0.545833
0.541667
0.545833
0.541667
0.545833
0.545833
0.541667
0.545833
0.545833
0.545833
0.541667
0.541667
0.545833
0.545833
0.541667
0.545833
0.545833
0.545833
0.545833
0.541667
0.545833
0.545833
0.550000
0.541667
0.545833
0.545833
0.545833
0.541667
0.545833
0.545833
0.545833
0.541667
0.545833
0.545833
0.545833
0.537500
0.545833
0.545833
0.545833
0.541667
0.545833
0.545833
0.545833
0.545833
0.537500
0.545833
0.545833
0.545833
0.541667
0.541667
0.545833
0.541667
0.537500
0.537500
0.545833
0.541667
0.537500
0.545833
0.541667
0.537500
0.541667
0.541667
0.545833
0.537500
0.537500
0.541667
0.541667
0.537500
0.541667
0.541667
0.541667
0.533333
0.541667
0.537500
0.545833
0.537500
0.541667
0.537500
0.545833
0.537500
0.537500
0.541667
0.541667
0.541667
0.541667
0.537500
0.545833
0.541667
0.541667
0.537500
0.545833
0.541667
0.537500
0.541667
0.545833
0.533333
0.537500
0.541667
0.537500
0.533333
0.541667
0.537500
0.533333
0.537500
0.537500
0.537500
0.537500
0.537500
0.541667
0.537500
0.541667
0.537500
0.537500
0.541667
0.533333
0.537500
0.537500
0.537500
0.537500
0.533333
0.537500
0.541667
0.533333
0.541667
0.537500
0.537500
0.537500
0.537500
0.537500
0.537500
0.537500
0.537500
0.537500
0.537500
0.537500
0.537500
0.537500
0.541667
0.537500
0.537500
0.537500
0.537500
0.541667
0.533333
0.537500
0.541667
0.537500
0.537500
0.541667
0.533333
0.537500
0.537500
0.537500
0.537500
0.537500
0.537500
0.537500
0.537500
0.533333
0.541667
0.537500
0.541667
0.537500
0.533333
0.541667
0.537500
0.541667
0.533333
0.537500
0.541667
0.537500
0.533333
0.537500
0.537500
0.541667
0.537500
0.533333
0.537500
0.537500
0.537500
0.533333
0.537500
0.537500
0.541667
0.529167
0.537500
0.637500
0.437500
0.529167
0.533333
0.537500
0.529167
0.533333
0.537500
0.533333
0.529167
0.537500
0.537500
0.537500
0.537500
0.537500
0.537500
0.537500
0.541667
0.541667
0.537500
0.541667
0.541667
0.545833
0.541667
0.541667
0.545833
0.545833
0.541667
0.545833
0.545833
0.545833
0.541667
0.537500
0.545833
0.537500
0.541667
0.541667
0.537500
0.541667
0.541667
0.537500
0.537500
0.541667
0.537500
0.541667
0.537500
0.537500
0.541667
0.537500
0.541667
0.537500
0.537500
0.541667
0.537500
0.533333
0.541667
0.537500
0.541667
0.537500
0.537500
0.537500
0.537500
0.537500
0.537500
0.537500
0.537500
0.537500
0.541667
0.533333
0.537500
0.533333
0.537500
0.537500
0.533333
0.537500
0.533333
0.537500
0.537500
0.533333
0.537500
0.537500
0.537500
0.533333
0.537500
0.537500
0.537500
0.537500
0.537500
0.533333
0.537500
0.533333
0.537500
0.533333
0.533333
0.537500
0.537500
0.533333
0.533333
0.537500
0.537500
0.537500
0.533333
0.533333
0.537500
0.537500
0.537500
0.537500
0.533333
0.537500
0.541667
0.533333
0.537500
0.537500
0.537500
0.537500
0.537500
0.537500
0.537500
0.537500
0.537500
0.537500
0.537500
0.537500
0.537500
0.541667
0.537500
0.537500
0.541667
0.541667
0.537500
0.537500
0.541667
0.541667
0.541667
0.537500
0.541667
0.541667
0.533333
0.362500
0.675000
0.570833
0.545833
0.541667
0.537500
0.537500
0.537500
0.537500
0.537500
0.537500
0.537500
0.533333
0.541667
0.537500
0.533333
0.541667
0.537500
0.541667
0.537500
0.537500
0.537500
0.541667
0.537500
0.537500
0.537500
0.541667
0.366667
0.475000
0.691667
0.554167
0.541667
0.541667
0.541667
0.537500
0.541667
0.541667
0.533333
0.541667
0.537500
0.541667
0.537500
0.541667
0.541667
0.541667
0.533333
0.541667
0.541667
0.541667
0.541667
0.537500
0.541667
0.545833
0.537500
0.541667
0.541667
0.541667
0.541667
0.541667
0.537500
0.545833
0.541667
0.395833
0.662500
0.566667
0.554167
0.541667
0.541667
0.545833
0.541667
0.545833
0.537500
0.541667
0.541667
0.545833
0.537500
0.541667
0.541667
0.545833
0.541667
0.537500
0.541667
0.541667
0.545833
0.537500
0.541667
0.541667
0.541667
0.541667
0.537500
0.541667
0.541667
0.541667
0.541667
0.537500
0.541667
0.541667
0.545833
0.537500
0.541667
0.541667
0.545833
0.541667
0.541667
0.545833
0.541667
0.545833
0.537500
0.545833
0.541667
0.545833
0.545833
0.537500
0.541667
0.545833
0.541667
0.541667
0.541667
0.545833
0.545833
0.541667
0.541667
0.545833
0.545833
0.545833
0.541667
0.545833
0.545833
0.362500
0.679167
0.579167
0.554167
0.550000
0.541667
0.545833
0.545833
0.545833
0.370833
0.675000
0.579167
0.554167
0.550000
0.541667
0.545833
0.545833
0.545833
0.545833
0.541667
0.545833
0.545833
0.545833
0.541667
0.545833
0.545833
0.550000
0.545833
0.545833
0.545833
0.550000
0.550000
0.541667
0.545833
0.550000
0.550000
0.545833
0.545833
0.545833
0.550000
0.550000
0.541667
0.545833
0.545833
0.550000
0.545833
0.545833
0.545833
0.550000
0.545833
0.545833
0.545833
0.545833
0.550000
0.541667
0.545833
0.545833
0.550000
0.545833
0.545833
0.545833
0.545833
0.545833
0.545833
0.545833
0.550000
0.545833
0.550000
0.541667
0.550000
0.545833
0.550000
0.541667
0.550000
0.545833
0.550000
0.545833
0.545833
0.545833
0.550000
0.550000
0.541667
0.545833
0.550000
0.545833
0.541667
0.545833
0.550000
0.550000
0.541667
0.545833
0.550000
0.545833
0.550000
0.545833
0.545833
0.550000
0.545833
0.545833
0.550000
0.545833
0.550000
0.541667
0.550000
0.545833
0.550000
0.550000
0.545833
0.550000
0.550000
0.545833
0.541667
0.550000
0.550000
0.545833
0.545833
0.545833
0.545833
0.550000
0.550000
0.545833
0.545833
0.550000
0.550000
0.541667
0.550000
0.545833
0.550000
0.550000
0.545833
0.550000
0.550000
0.550000
0.545833
0.550000
0.550000
0.554167
0.550000
0.545833
0.550000
0.550000
0.550000
0.545833
0.550000
0.550000
0.550000
0.545833
0.550000
0.550000
0.554167
0.541667
0.550000
0.550000
0.550000
0.550000
0.541667
0.550000
0.550000
0.545833
0.545833
0.545833
0.550000
0.545833
0.545833
0.545833
0.545833
0.550000
0.545833
0.545833
0.545833
0.545833
0.550000
0.550000
0.545833
0.550000
0.550000
0.550000
0.541667
0.550000
0.550000
0.550000
0.545833
0.545833
0.550000
0.550000
0.545833
0.545833
0.550000
0.550000
0.550000
0.545833
0.550000
0.545833
0.554167
0.545833
0.545833
0.550000
0.550000
0.550000
0.545833
0.545833
0.550000
0.550000
0.541667
0.550000
0.550000
0.550000
0.541667
0.550000
0.550000
0.550000
0.550000
0.545833
0.550000
0.550000
0.545833
0.550000
0.545833
0.550000
0.554167
0.545833
0.550000
0.550000
0.554167
0.550000
0.545833
0.550000
0.554167
0.550000
0.545833
0.550000
0.554167
0.550000
0.545833
0.550000
0.554167
0.550000
0.545833
0.550000
0.554167
0.550000
0.545833
0.554167
0.550000
0.550000
0.550000
0.550000
0.550000
0.554167
0.550000
0.545833
0.550000
0.550000
0.550000
