0.558333
0.562500
0.566667
0.566667
0.566667
0.558333
0.558333
0.558333
0.562500
0.566667
0.558333
0.558333
0.558333
0.558333
0.566667
0.558333
0.554167
0.558333
0.558333
0.566667
0.562500
0.558333
0.562500
0.558333
0.566667
0.566667
0.558333
0.558333
0.562500
0.562500
0.566667
0.566667
0.558333
0.558333
0.562500
0.562500
0.566667
0.558333
0.562500
0.558333
0.566667
0.566667
0.558333
0.562500
0.558333
0.566667
0.566667
0.562500
0.558333
0.562500
0.562500
0.566667
0.562500
0.558333
0.562500
0.558333
0.566667
0.562500
0.558333
0.558333
0.558333
0.566667
0.375000
0.741667
0.279167
0.291667
0.570833
0.675000
0.241667
0.220833
0.416667
0.725000
0.566667
0.683333
0.445833
0.570833
0.566667
0.566667
0.558333
0.566667
0.566667
0.566667
0.562500
0.558333
0.566667
0.566667
0.558333
0.558333
0.562500
0.562500
0.566667
0.558333
0.558333
0.562500
0.562500
0.562500
0.558333
0.558333
0.558333
0.562500
0.562500
0.558333
0.558333
0.558333
0.562500
0.550000
0.283333
0.458333
0.520833
0.995833
0.562500
0.562500
0.566667
0.562500
0.562500
0.562500
0.562500
0.566667
0.566667
0.558333
0.562500
0.558333
0.566667
0.562500
0.558333
0.558333
0.562500
0.566667
0.554167
0.558333
0.558333
0.566667
0.558333
0.558333
0.554167
0.558333
0.562500
0.558333
0.554167
0.558333
0.558333
0.558333
0.562500
0.554167
0.558333
0.554167
0.562500
0.562500
0.554167
0.554167
0.554167
0.562500
0.558333
0.554167
0.554167
0.558333
0.558333
0.562500
0.554167
0.554167
0.554167
0.558333
0.562500
0.554167
0.554167
0.558333
0.558333
0.562500
0.554167
0.554167
0.558333
0.558333
0.562500
0.558333
0.558333
0.558333
0.558333
0.562500
0.558333
0.558333
0.558333
0.566667
0.558333
0.558333
0.558333
0.558333
0.566667
0.558333
0.558333
0.558333
0.562500
0.562500
0.554167
0.558333
0.562500
0.562500
0.562500
0.558333
0.562500
0.562500
0.208333
0.112500
0.800000
0.562500
0.208333
0.358333
0.570833
0.566667
0.566667
0.566667
0.570833
0.570833
0.566667
0.562500
0.562500
0.566667
0.566667
0.570833
0.558333
0.558333
0.566667
0.562500
0.566667
0.558333
0.558333
0.562500
0.562500
0.566667
0.554167
0.558333
0.558333
0.562500
0.562500
0.554167
0.558333
0.558333
0.558333
0.566667
0.554167
0.554167
0.558333
0.558333
0.562500
0.562500
0.554167
0.554167
0.558333
0.562500
0.562500
0.554167
0.558333
0.554167
0.562500
0.562500
0.558333
0.558333
0.558333
0.562500
0.566667
0.558333
0.558333
0.558333
0.562500
0.566667
0.562500
0.558333
0.558333
0.566667
0.566667
0.562500
0.558333
0.562500
0.562500
0.566667
0.558333
0.562500
0.320833
0.237500
0.562500
0.558333
0.558333
0.562500
0.562500
0.566667
0.558333
0.558333
0.558333
0.562500
0.566667
0.558333
0.562500
0.304167
0.254167
0.566667
0.558333
0.558333
0.558333
0.562500
0.566667
0.558333
0.558333
0.558333
0.562500
0.566667
0.558333
0.558333
0.558333
0.562500
0.562500
0.558333
0.558333
0.554167
0.558333
0.566667
0.558333
0.558333
0.554167
0.562500
0.562500
0.558333
0.558333
0.554167
0.558333
0.558333
0.562500
0.566667
0.558333
0.558333
0.558333
0.562500
0.566667
0.566667
0.558333
0.558333
0.562500
0.566667
0.566667
0.558333
0.558333
0.562500
0.562500
0.566667
0.558333
0.562500
0.558333
0.562500
0.566667
0.558333
0.562500
0.558333
0.562500
0.566667
0.562500
0.558333
0.562500
0.558333
0.816667
0.312500
0.558333
0.558333
0.558333
0.562500
0.566667
0.562500
0.558333
0.558333
0.562500
0.566667
0.562500
0.558333
0.558333
0.562500
0.566667
0.562500
0.558333
0.562500
0.558333
0.566667
0.562500
0.558333
0.562500
0.558333
0.562500
0.566667
0.562500
0.558333
0.562500
0.558333
0.566667
0.566667
0.558333
0.562500
0.558333
0.562500
0.566667
0.562500
0.558333
0.558333
0.562500
0.562500
0.566667
0.562500
0.558333
0.558333
0.562500
0.562500
0.566667
0.558333
0.562500
0.558333
0.562500
0.570833
0.558333
0.562500
0.558333
0.562500
0.566667
0.566667
0.558333
0.562500
0.558333
0.562500
0.233333
0.891667
0.562500
0.558333
0.566667
0.566667
0.558333
0.558333
0.558333
0.562500
0.566667
0.558333
0.558333
0.558333
0.562500
0.562500
0.566667
0.558333
0.558333
0.558333
0.562500
0.566667
0.558333
0.558333
0.558333
0.562500
0.562500
0.566667
0.558333
0.558333
0.558333
0.562500
0.566667
0.562500
0.554167
0.562500
0.558333
0.562500
0.566667
0.558333
0.562500
0.554167
0.562500
0.562500
0.562500
0.558333
0.558333
0.562500
0.562500
0.566667
0.558333
0.562500
0.558333
0.566667
0.566667
0.558333
0.562500
0.562500
0.562500
0.566667
0.566667
0.558333
0.562500
0.562500
0.570833
0.566667
0.558333
0.562500
0.562500
0.566667
0.570833
0.566667
0.562500
0.558333
0.562500
0.562500
0.562500
0.570833
0.566667
0.562500
0.558333
0.562500
0.566667
0.562500
0.562500
0.558333
0.558333
0.566667
0.562500
0.558333
0.558333
0.558333
0.558333
0.562500
0.566667
0.566667
0.558333
0.558333
0.562500
0.566667
0.566667
0.562500
0.558333
0.562500
0.566667
0.570833
0.562500
0.562500
0.562500
0.566667
0.566667
0.562500
0.562500
0.562500
0.562500
0.570833
0.558333
0.562500
0.516667
0.341667
0.208333
0.629167
0.258333
0.520833
0.116667
0.250000
0.570833
0.283333
0.262500
0.408333
0.200000
0.583333
0.354167
0.225000
0.579167
0.583333
0.575000
0.570833
0.579167
0.579167
0.566667
0.570833
0.570833
0.575000
0.579167
0.566667
0.562500
0.566667
0.566667
0.575000
0.558333
0.562500
0.562500
0.566667
0.562500
0.554167
0.554167
0.562500
0.562500
0.554167
0.550000
0.554167
0.558333
0.558333
0.554167
0.554167
0.550000
0.554167
0.558333
0.558333
0.554167
0.550000
0.554167
0.558333
0.558333
0.558333
0.550000
0.554167
0.554167
0.558333
0.558333
0.558333
0.554167
0.550000
0.554167
0.562500
0.558333
0.554167
0.554167
0.554167
0.562500
0.562500
0.554167
0.554167
0.558333
0.558333
0.562500
0.558333
0.258333
0.295833
0.366667
0.200000
0.562500
0.566667
0.570833
0.570833
0.566667
0.570833
0.570833
0.566667
0.562500
0.562500
0.566667
0.570833
0.570833
0.562500
0.562500
0.566667
0.566667
0.570833
0.566667
0.558333
0.562500
0.566667
0.566667
0.558333
0.558333
0.566667
0.566667
0.558333
0.558333
0.554167
0.558333
0.562500
0.562500
0.562500
0.554167
0.558333
0.558333
0.558333
0.566667
0.562500
0.554167
0.558333
0.558333
0.558333
0.566667
0.558333
0.558333
0.554167
0.562500
0.562500
0.562500
0.558333
0.558333
0.562500
0.562500
0.558333
0.558333
0.558333
0.558333
0.737500
0.233333
0.641667
0.629167
0.470833
0.658333
0.566667
0.566667
0.566667
0.558333
0.562500
0.566667
0.566667
0.562500
0.558333
0.562500
0.566667
0.558333
0.558333
0.562500
0.562500
0.562500
0.554167
0.558333
0.558333
0.562500
0.554167
0.554167
0.554167
0.562500
0.554167
0.550000
0.554167
0.720833
0.391667
0.554167
0.550000
0.554167
0.558333
0.550000
0.554167
0.554167
0.558333
0.554167
0.550000
0.554167
0.554167
0.558333
0.550000
0.554167
0.550000
0.554167
0.562500
0.550000
0.550000
0.862500
0.804167
0.420833
0.683333
0.554167
0.554167
0.550000
0.554167
0.558333
0.558333
0.554167
0.550000
0.558333
0.562500
0.554167
0.554167
0.554167
0.558333
0.566667
0.554167
0.558333
0.558333
0.562500
0.562500
0.558333
0.554167
0.558333
0.562500
0.554167
0.558333
0.554167
0.554167
0.562500
0.562500
0.554167
0.558333
0.554167
0.529167
0.637500
0.512500
0.558333
0.554167
0.562500
0.554167
0.554167
0.554167
0.558333
0.562500
0.554167
0.554167
0.554167
0.558333
0.562500
0.554167
0.554167
0.558333
0.562500
0.558333
0.554167
0.558333
0.558333
0.566667
0.554167
0.558333
0.558333
0.558333
0.558333
0.554167
0.558333
0.558333
0.558333
0.562500
0.570833
0.554167
0.558333
0.562500
0.558333
0.562500
0.566667
0.558333
0.558333
0.558333
0.562500
0.566667
0.558333
0.562500
0.558333
0.562500
0.570833
0.558333
0.558333
0.562500
0.562500
0.562500
0.570833
0.558333
0.558333
0.562500
0.562500
0.566667
0.562500
0.558333
0.558333
0.562500
0.562500
0.566667
0.554167
0.558333
0.558333
0.562500
0.562500
0.558333
0.554167
0.558333
0.562500
0.562500
0.558333
0.554167
0.558333
0.558333
0.566667
0.558333
0.558333
0.558333
0.558333
0.562500
0.566667
0.558333
0.558333
0.558333
0.558333
0.566667
0.562500
0.558333
0.558333
0.562500
0.562500
0.562500
0.558333
0.558333
0.558333
0.566667
0.566667
0.554167
0.558333
0.558333
0.562500
0.562500
0.558333
0.558333
0.558333
0.558333
0.562500
0.566667
0.558333
0.558333
0.562500
0.562500
0.566667
0.562500
0.562500
0.562500
0.562500
0.566667
0.566667
0.562500
0.562500
0.562500
0.566667
0.570833
0.562500
0.562500
0.562500
0.566667
0.570833
0.558333
0.562500
0.562500
0.566667
0.566667
0.558333
0.562500
0.379167
0.745833
0.570833
0.558333
0.562500
0.562500
0.562500
0.566667
0.562500
0.558333
0.562500
0.566667
0.570833
0.558333
0.562500
0.566667
0.566667
0.562500
0.562500
0.558333
0.562500
0.566667
0.558333
0.558333
0.562500
0.562500
0.404167
0.866667
0.412500
0.562500
0.562500
0.566667
0.562500
0.562500
0.558333
0.566667
0.566667
0.562500
0.562500
0.562500
0.562500
0.562500
0.570833
0.562500
0.558333
0.562500
0.566667
0.566667
0.562500
0.558333
0.562500
0.566667
0.562500
0.570833
0.558333
0.562500
0.562500
0.562500
0.566667
0.562500
0.562500
0.558333
0.566667
0.570833
0.562500
0.562500
0.562500
0.570833
0.570833
0.566667
0.562500
0.566667
0.566667
0.570833
0.566667
0.566667
0.566667
0.566667
0.575000
0.562500
0.566667
0.566667
0.570833
0.570833
0.562500
0.566667
0.566667
0.566667
0.570833
0.566667
0.562500
0.566667
0.562500
0.575000
0.558333
0.566667
0.562500
0.570833
0.562500
0.562500
0.562500
0.562500
0.566667
0.570833
0.562500
0.562500
0.566667
0.562500
0.570833
0.562500
0.562500
0.566667
0.566667
0.570833
0.562500
0.562500
0.566667
0.566667
0.562500
0.562500
0.566667
0.566667
0.570833
0.562500
0.562500
0.562500
0.566667
0.566667
0.570833
0.562500
0.562500
0.566667
0.562500
0.570833
0.570833
0.562500
0.566667
0.562500
0.566667
0.570833
0.566667
0.562500
0.562500
0.570833
0.570833
0.562500
0.566667
0.566667
0.570833
0.575000
0.562500
0.566667
0.566667
0.570833
0.575000
0.562500
0.562500
0.566667
0.566667
0.575000
0.562500
0.566667
0.566667
0.566667
0.629167
0.504167
0.562500
0.562500
0.566667
0.575000
0.562500
0.558333
0.566667
0.566667
0.562500
0.562500
0.562500
0.570833
0.562500
0.558333
0.562500
0.562500
0.570833
0.562500
0.562500
0.558333
0.570833
0.570833
0.562500
0.558333
0.562500
0.566667
0.570833
0.558333
0.562500
0.562500
0.570833
0.562500
0.558333
0.562500
0.562500
0.566667
0.562500
