0.641667
0.666667
0.645833
0.650000
0.650000
0.670833
0.670833
0.650000
0.645833
0.633333
0.629167
0.645833
0.650000
0.637500
0.629167
0.641667
0.666667
0.683333
0.666667
0.670833
0.675000
0.687500
0.704167
0.675000
0.679167
0.675000
0.683333
0.675000
0.645833
0.633333
0.641667
0.662500
0.666667
0.633333
0.633333
0.658333
0.666667
0.683333
0.650000
0.650000
0.675000
0.691667
0.695833
0.679167
0.662500
0.675000
0.654167
0.625000
0.608333
0.600000
0.587500
0.583333
0.583333
0.583333
0.587500
0.583333
0.579167
0.579167
0.587500
0.583333
0.579167
0.579167
0.575000
0.570833
0.570833
0.554167
0.562500
0.562500
0.550000
0.541667
0.541667
0.529167
0.541667
0.529167
0.533333
0.525000
0.520833
0.512500
0.525000
0.512500
0.512500
0.512500
0.508333
0.512500
0.500000
0.516667
0.516667
0.512500
0.512500
0.512500
0.512500
0.504167
0.525000
0.508333
0.516667
0.516667
0.516667
0.512500
1.020833
0.516667
0.512500
0.512500
0.512500
0.500000
0.516667
0.508333
0.516667
0.508333
0.508333
0.504167
0.500000
0.508333
0.504167
0.500000
0.500000
0.495833
0.487500
0.487500
0.504167
0.500000
0.491667
0.504167
0.495833
0.495833
0.495833
0.483333
0.495833
0.504167
0.495833
0.504167
0.504167
0.491667
0.500000
0.512500
0.504167
0.504167
0.504167
0.500000
0.500000
0.483333
0.491667
0.504167
0.491667
0.500000
0.491667
0.487500
0.487500
0.975000
0.487500
0.495833
0.495833
0.491667
0.495833
0.487500
0.491667
0.495833
0.491667
0.491667
0.491667
0.491667
0.483333
0.962500
0.483333
0.979167
0.491667
0.487500
0.475000
0.487500
0.491667
0.491667
0.487500
0.491667
0.483333
0.458333
0.508333
0.983333
0.491667
0.500000
0.483333
0.491667
0.495833
0.495833
0.500000
0.495833
0.500000
0.479167
0.491667
0.491667
1.000000
0.508333
0.512500
0.512500
0.512500
0.512500
0.504167
0.516667
0.508333
0.508333
0.508333
0.504167
0.504167
0.512500
0.500000
0.491667
0.516667
0.500000
0.495833
1.004167
0.495833
0.504167
0.495833
0.487500
0.516667
0.495833
0.508333
0.504167
0.491667
0.500000
0.512500
0.512500
0.508333
0.487500
0.512500
0.508333
0.512500
0.508333
0.512500
0.495833
0.516667
0.508333
0.495833
0.495833
0.491667
0.491667
0.491667
0.483333
0.475000
0.487500
0.483333
0.487500
0.483333
0.470833
0.479167
0.495833
0.487500
0.487500
0.487500
0.487500
0.487500
0.487500
0.500000
0.487500
0.495833
0.500000
0.491667
0.479167
0.483333
0.495833
0.491667
0.495833
0.487500
0.491667
0.487500
0.479167
0.495833
0.491667
0.483333
0.470833
0.491667
0.483333
0.491667
0.495833
0.483333
0.491667
0.479167
0.979167
0.491667
0.487500
0.491667
0.479167
0.483333
0.487500
0.487500
0.491667
0.483333
0.487500
0.487500
0.466667
0.479167
0.495833
0.487500
0.491667
0.483333
0.491667
0.475000
0.475000
0.487500
0.500000
0.487500
0.487500
0.487500
0.470833
0.487500
0.495833
0.491667
0.491667
0.487500
0.491667
0.475000
0.483333
0.491667
0.491667
0.491667
0.487500
0.487500
0.470833
0.487500
0.483333
0.495833
0.487500
0.491667
0.479167
0.487500
0.491667
0.491667
0.491667
0.470833
0.487500
0.491667
0.491667
0.487500
0.491667
0.475000
0.487500
0.495833
0.487500
0.495833
0.487500
0.491667
0.479167
1.004167
0.491667
0.500000
0.495833
0.970833
0.504167
0.500000
0.504167
0.500000
0.483333
0.500000
0.500000
0.508333
0.508333
0.500000
0.504167
0.487500
0.504167
0.504167
0.508333
0.500000
0.508333
0.487500
0.504167
0.500000
0.508333
0.504167
0.504167
0.487500
0.504167
0.504167
0.504167
0.500000
0.500000
0.491667
0.508333
0.495833
0.504167
0.508333
0.487500
0.495833
0.512500
0.504167
0.504167
0.508333
0.508333
0.495833
0.508333
0.508333
0.504167
0.512500
0.508333
0.508333
1.012500
0.508333
0.487500
0.504167
0.512500
0.504167
0.508333
0.504167
0.508333
0.500000
0.495833
0.508333
0.504167
0.200000
0.308333
0.500000
0.508333
0.495833
0.500000
0.508333
0.504167
0.504167
0.487500
0.500000
0.512500
0.508333
0.512500
0.504167
0.491667
0.504167
0.504167
0.516667
0.504167
0.504167
0.495833
0.504167
0.500000
0.479167
0.500000
0.491667
0.491667
0.475000
0.483333
0.491667
0.495833
0.483333
0.491667
0.466667
0.491667
0.479167
0.495833
0.491667
0.491667
0.475000
0.487500
0.500000
0.500000
0.500000
0.491667
0.504167
0.483333
0.495833
0.500000
0.500000
0.495833
0.491667
0.483333
0.512500
0.504167
0.504167
0.500000
0.487500
0.504167
0.508333
0.504167
0.500000
0.491667
0.516667
0.508333
0.508333
0.504167
0.504167
0.495833
0.491667
0.512500
0.504167
0.504167
0.500000
0.487500
0.495833
0.504167
0.504167
0.500000
0.500000
0.500000
0.487500
0.508333
0.508333
0.512500
0.500000
0.495833
0.508333
0.512500
0.508333
0.516667
0.504167
0.504167
0.504167
0.512500
0.512500
0.516667
0.495833
0.504167
0.516667
0.512500
0.516667
0.508333
0.491667
0.516667
0.516667
0.516667
0.512500
0.508333
0.516667
0.525000
0.520833
0.516667
0.508333
0.525000
0.512500
0.520833
0.516667
0.504167
1.029167
0.516667
0.520833
0.508333
0.512500
0.495833
0.508333
0.512500
0.508333
0.508333
0.504167
0.500000
0.512500
0.512500
0.512500
0.516667
0.508333
0.512500
0.516667
0.512500
0.516667
0.516667
0.508333
0.512500
0.520833
0.516667
0.516667
0.508333
0.520833
0.525000
0.525000
0.512500
0.529167
0.529167
0.537500
0.529167
0.533333
0.537500
0.550000
0.537500
0.541667
0.550000
0.541667
0.550000
0.545833
0.550000
0.550000
0.558333
0.562500
0.558333
0.558333
0.554167
0.558333
0.566667
0.566667
0.554167
0.562500
0.550000
0.558333
0.566667
0.541667
0.550000
0.545833
0.545833
0.537500
0.529167
0.520833
0.500000
0.516667
0.520833
0.508333
0.504167
0.500000
0.504167
0.500000
0.491667
0.504167
0.504167
0.508333
0.504167
0.508333
0.495833
0.504167
0.516667
0.516667
0.525000
0.512500
0.516667
0.520833
0.516667
0.520833
0.512500
0.508333
0.525000
0.520833
0.516667
0.508333
0.512500
0.516667
0.520833
0.520833
0.495833
0.512500
0.516667
0.512500
0.508333
0.512500
0.512500
0.504167
0.500000
0.516667
0.512500
0.520833
0.508333
0.508333
0.520833
0.516667
0.525000
0.504167
0.520833
0.512500
0.516667
0.508333
0.500000
0.500000
1.029167
0.512500
0.508333
0.500000
0.508333
0.508333
0.512500
0.504167
0.500000
0.504167
0.512500
0.504167
0.508333
0.504167
0.495833
0.508333
0.508333
0.500000
0.504167
0.495833
0.500000
0.483333
0.500000
0.487500
0.491667
0.487500
0.483333
0.479167
0.487500
0.495833
0.979167
0.487500
0.487500
0.483333
0.979167
0.491667
0.491667
0.491667
0.491667
0.475000
0.495833
0.495833
0.491667
0.495833
0.491667
0.491667
0.475000
0.495833
0.491667
0.491667
0.491667
0.491667
0.491667
0.979167
0.487500
0.495833
0.487500
0.487500
0.475000
0.487500
0.487500
0.495833
0.483333
0.487500
0.470833
0.491667
0.483333
0.483333
0.475000
0.470833
0.475000
0.479167
0.479167
0.487500
0.479167
0.479167
0.466667
0.445833
0.508333
0.479167
0.483333
0.475000
0.479167
0.466667
0.479167
0.475000
0.466667
0.479167
0.479167
0.470833
0.454167
0.475000
0.470833
0.470833
0.466667
0.462500
0.458333
0.462500
0.466667
0.450000
0.454167
0.470833
0.454167
0.462500
0.454167
1.008333
0.362500
0.458333
0.462500
0.454167
0.462500
0.450000
0.462500
0.454167
0.679167
0.250000
0.462500
0.475000
0.470833
0.470833
0.470833
0.479167
0.470833
0.470833
0.466667
0.462500
0.483333
0.458333
0.470833
0.470833
0.466667
0.450000
0.470833
0.462500
0.462500
0.462500
0.454167
0.450000
0.925000
0.458333
0.466667
0.454167
0.458333
0.445833
0.454167
0.466667
0.466667
0.462500
0.462500
0.912500
0.470833
0.475000
0.470833
0.470833
0.458333
0.466667
0.470833
0.479167
0.475000
0.470833
0.466667
0.458333
0.466667
0.475000
0.475000
0.475000
0.475000
0.466667
0.462500
0.475000
0.475000
0.479167
0.475000
0.475000
0.475000
0.462500
0.479167
0.475000
0.475000
0.475000
0.470833
0.466667
0.479167
0.470833
0.475000
0.475000
0.475000
0.458333
0.475000
0.475000
0.483333
0.466667
0.241667
0.233333
0.466667
0.462500
0.466667
0.475000
0.479167
0.462500
0.470833
0.458333
0.479167
0.462500
0.475000
0.466667
0.450000
0.466667
0.470833
0.458333
0.462500
0.462500
0.454167
0.466667
0.466667
0.462500
0.458333
0.462500
0.450000
0.475000
0.458333
0.470833
0.454167
0.462500
0.466667
0.466667
0.458333
0.454167
0.475000
0.462500
0.462500
0.462500
0.445833
0.466667
0.462500
0.466667
0.466667
0.462500
0.458333
0.462500
0.475000
0.470833
0.470833
0.466667
0.462500
0.466667
0.475000
0.470833
0.479167
0.479167
0.475000
0.470833
0.475000
0.479167
0.479167
0.483333
0.479167
0.466667
0.475000
0.487500
0.483333
0.483333
0.475000
0.479167
0.475000
0.487500
0.483333
0.487500
0.487500
0.470833
0.487500
0.491667
0.491667
0.487500
0.483333
0.483333
0.495833
0.487500
0.491667
0.491667
0.495833
0.475000
0.491667
0.491667
0.491667
0.495833
0.487500
0.483333
0.500000
0.495833
0.495833
0.495833
0.483333
0.495833
0.495833
0.491667
0.495833
0.487500
0.479167
0.491667
0.491667
0.487500
0.491667
0.487500
0.487500
0.479167
0.491667
0.483333
0.495833
0.491667
0.487500
0.475000
0.491667
0.491667
0.491667
0.491667
0.491667
0.487500
0.483333
0.487500
0.491667
0.491667
0.491667
0.495833
0.491667
0.487500
0.504167
0.495833
0.500000
0.495833
0.495833
0.491667
0.512500
0.504167
0.500000
0.491667
0.491667
0.495833
0.500000
0.491667
0.495833
0.491667
0.504167
0.491667
0.491667
0.491667
0.483333
0.500000
0.504167
0.495833
0.495833
0.491667
0.491667
0.508333
0.500000
0.495833
0.495833
0.479167
0.491667
0.508333
0.495833
0.500000
0.500000
0.491667
0.479167
0.495833
0.495833
0.491667
0.495833
0.495833
0.475000
0.504167
0.487500
0.500000
0.491667
0.483333
0.491667
0.487500
0.500000
0.495833
0.495833
0.495833
0.491667
0.475000
0.491667
0.500000
0.495833
0.491667
0.487500
0.500000
0.495833
0.504167
0.483333
0.512500
0.504167
0.500000
0.495833
0.512500
0.512500
0.508333
0.495833
0.520833
0.512500
0.500000
0.512500
0.512500
0.520833
0.508333
0.516667
0.512500
0.520833
0.512500
0.512500
0.520833
0.508333
0.495833
0.508333
0.504167
0.508333
0.500000
0.495833
0.508333
0.500000
0.495833
0.491667
0.479167
0.495833
0.491667
0.487500
0.487500
0.479167
0.483333
0.491667
0.483333
0.487500
0.483333
0.470833
0.491667
0.491667
0.487500
0.479167
0.495833
0.491667
0.495833
0.491667
0.487500
0.487500
0.500000
0.491667
0.500000
0.487500
0.504167
0.500000
0.500000
0.500000
0.495833
0.504167
0.495833
0.508333
0.500000
0.495833
0.504167
0.500000
0.504167
0.504167
0.495833
0.512500
0.504167
0.500000
0.508333
0.487500
0.504167
0.500000
0.500000
0.500000
0.500000
0.487500
0.500000
0.495833
0.495833
0.500000
0.483333
0.479167
0.495833
0.491667
0.487500
0.495833
0.487500
0.475000
0.491667
0.491667
0.975000
0.487500
0.479167
0.500000
0.487500
0.491667
0.487500
0.483333
0.495833
0.491667
0.495833
0.479167
0.487500
0.495833
0.495833
0.495833
0.487500
0.500000
0.500000
0.495833
0.491667
0.500000
0.500000
0.504167
0.500000
0.483333
0.495833
0.500000
0.500000
0.495833
0.483333
0.500000
0.495833
0.495833
0.495833
0.487500
0.491667
0.504167
0.495833
0.491667
0.500000
0.479167
0.487500
0.500000
0.491667
0.500000
0.487500
0.495833
0.500000
0.495833
0.508333
0.495833
0.504167
0.508333
0.508333
0.500000
0.500000
0.516667
0.504167
0.508333
0.504167
0.500000
0.508333
0.495833
0.504167
0.500000
0.487500
0.491667
0.491667
0.495833
0.491667
0.487500
0.483333
0.483333
0.491667
0.487500
0.487500
0.483333
0.479167
0.483333
0.491667
