0.487500
0.487500
0.495833
0.479167
0.495833
0.483333
0.495833
0.495833
0.475000
0.495833
0.483333
0.500000
0.491667
0.479167
0.500000
0.470833
0.512500
0.495833
0.479167
0.504167
0.354167
0.633333
0.491667
0.479167
0.504167
0.354167
0.620833
0.491667
0.483333
0.500000
0.470833
0.508333
0.487500
0.487500
0.500000
0.470833
0.504167
0.487500
0.487500
0.500000
0.475000
0.504167
0.487500
0.487500
0.500000
0.470833
0.504167
0.479167
0.495833
0.500000
0.358333
0.616667
0.479167
0.495833
0.500000
0.470833
0.504167
0.475000
0.500000
0.495833
0.475000
0.500000
0.475000
0.500000
0.495833
0.475000
0.500000
0.470833
0.512500
0.500000
0.475000
0.504167
0.470833
0.520833
0.525000
0.341667
0.633333
0.483333
0.500000
1.512500
1.008333
0.995833
0.970833
0.966667
0.954167
0.954167
0.945833
0.937500
0.937500
0.933333
0.925000
0.929167
0.920833
0.916667
0.916667
0.908333
0.912500
0.908333
0.354167
0.325000
0.395833
0.520833
0.266667
0.375000
0.370833
0.375000
0.366667
0.345833
1.229167
0.604167
1.179167
0.650000
1.175000
0.475000
0.333333
0.300000
0.345833
0.620833
0.262500
0.333333
0.329167
0.329167
1.170833
1.491667
0.995833
0.354167
1.220833
0.466667
0.333333
0.308333
0.850000
1.116667
1.029167
0.350000
1.291667
0.587500
1.170833
0.583333
1.162500
0.587500
1.150000
0.583333
1.145833
0.587500
1.133333
0.587500
1.133333
0.591667
1.125000
0.604167
1.091667
0.595833
0.233333
0.308333
1.595833
0.466667
0.358333
0.329167
0.333333
0.375000
0.354167
0.320833
0.354167
1.045833
1.104167
0.937500
0.829167
0.920833
1.012500
0.912500
0.916667
0.358333
1.266667
0.583333
1.150000
0.595833
0.620833
0.620833
0.525000
0.516667
0.304167
1.216667
0.462500
0.350000
0.345833
0.337500
0.345833
0.387500
0.366667
1.241667
0.941667
0.941667
0.933333
0.933333
0.933333
0.925000
0.466667
1.279167
0.600000
1.129167
0.600000
0.612500
1.900000
0.616667
0.620833
0.641667
1.154167
0.583333
0.237500
0.329167
0.316667
0.383333
0.375000
0.333333
0.337500
0.362500
0.354167
0.341667
0.362500
0.354167
0.350000
0.362500
0.362500
0.354167
0.358333
0.358333
0.354167
0.358333
0.358333
0.358333
0.366667
0.362500
0.358333
0.362500
0.362500
0.358333
0.362500
0.366667
0.354167
0.358333
0.366667
0.366667
0.366667
0.358333
0.362500
0.362500
0.366667
0.358333
0.362500
0.366667
0.366667
0.362500
0.362500
0.366667
0.366667
0.362500
0.362500
0.366667
0.362500
0.366667
0.366667
0.366667
0.362500
0.362500
0.366667
0.366667
0.366667
0.366667
0.362500
0.366667
0.370833
0.362500
0.366667
0.366667
0.362500
0.370833
0.370833
0.366667
0.366667
0.366667
0.362500
0.370833
0.370833
0.362500
0.366667
0.370833
0.362500
0.366667
0.366667
0.370833
0.366667
0.362500
0.362500
0.358333
0.345833
0.404167
0.354167
0.312500
0.400000
0.387500
0.391667
0.387500
0.370833
0.370833
0.375000
0.375000
0.370833
0.354167
0.366667
0.370833
0.358333
0.350000
0.362500
0.366667
0.358333
0.362500
0.362500
0.362500
0.362500
0.358333
0.362500
0.366667
0.362500
0.362500
0.362500
0.362500
0.358333
0.354167
0.366667
0.370833
0.358333
0.358333
0.366667
0.362500
0.358333
0.366667
0.366667
0.354167
0.362500
0.366667
0.358333
0.366667
0.366667
0.345833
0.366667
0.375000
0.362500
0.354167
0.362500
0.362500
0.362500
0.358333
0.362500
0.362500
0.358333
0.362500
0.366667
0.362500
0.362500
0.354167
0.345833
0.329167
0.354167
0.337500
0.408333
1.800000
0.354167
0.629167
0.554167
1.329167
0.995833
0.945833
0.925000
0.875000
1.212500
1.133333
1.204167
0.462500
1.162500
0.545833
0.591667
1.591667
1.054167
0.970833
0.958333
0.945833
0.945833
0.945833
0.854167
1.020833
0.845833
1.020833
0.925000
0.929167
0.929167
0.362500
0.329167
0.304167
0.700000
0.704167
0.183333
0.445833
0.508333
0.245833
0.566667
0.283333
0.404167
0.404167
0.354167
0.341667
0.345833
0.341667
1.133333
1.037500
1.029167
1.087500
0.475000
0.341667
0.337500
0.329167
0.245833
0.545833
0.341667
0.345833
0.362500
0.341667
0.341667
0.358333
0.412500
0.358333
0.250000
0.400000
0.391667
0.395833
0.391667
0.383333
0.375000
0.366667
0.558333
0.275000
0.345833
0.366667
0.366667
0.391667
0.387500
0.358333
0.379167
0.354167
0.350000
0.420833
0.358333
0.350000
0.400000
0.387500
0.350000
0.358333
0.391667
0.375000
0.358333
0.375000
0.387500
0.350000
0.350000
0.366667
0.358333
0.370833
0.387500
0.375000
0.341667
0.625000
0.512500
0.520833
0.533333
0.516667
0.525000
0.529167
0.525000
0.525000
0.525000
0.525000
0.529167
0.520833
0.529167
0.520833
0.529167
0.520833
0.525000
0.525000
0.516667
0.529167
0.525000
0.516667
0.525000
0.516667
0.529167
0.520833
0.516667
0.525000
0.512500
0.533333
0.512500
0.520833
0.525000
0.508333
0.504167
0.500000
0.520833
0.516667
0.512500
0.525000
0.508333
0.525000
0.525000
0.533333
0.512500
0.495833
0.512500
0.520833
0.533333
0.508333
0.520833
0.516667
0.512500
0.512500
0.500000
0.520833
0.500000
0.516667
0.516667
0.495833
0.525000
0.508333
0.504167
0.520833
0.525000
0.508333
1.375000
0.450000
0.370833
0.375000
0.375000
0.379167
0.362500
0.362500
0.387500
0.375000
0.383333
0.583333
0.270833
0.358333
0.404167
0.370833
0.362500
0.350000
0.350000
0.370833
0.362500
0.545833
0.591667
0.466667
0.458333
0.333333
0.379167
0.375000
0.383333
0.404167
0.383333
0.337500
0.300000
0.366667
0.387500
0.358333
0.325000
0.333333
0.691667
0.145833
0.450000
0.312500
0.341667
0.370833
0.329167
0.329167
0.362500
0.366667
0.370833
0.387500
0.366667
0.383333
0.354167
0.316667
0.316667
0.379167
0.383333
0.366667
0.350000
0.404167
0.408333
0.366667
0.404167
0.366667
0.370833
0.387500
0.354167
0.358333
0.391667
0.362500
0.350000
0.320833
0.345833
0.362500
0.341667
0.337500
0.395833
0.387500
2.037500
1.541667
1.387500
1.379167
1.320833
1.437500
1.166667
1.012500
1.387500
0.595833
0.716667
0.479167
1.275000
0.587500
0.237500
0.529167
0.262500
0.329167
0.325000
0.325000
0.341667
0.333333
0.312500
0.308333
0.337500
0.337500
0.358333
0.383333
0.366667
0.354167
0.370833
0.341667
0.375000
0.379167
0.379167
0.379167
0.333333
0.354167
0.362500
0.333333
0.341667
0.350000
0.345833
0.341667
0.329167
0.345833
0.387500
0.375000
0.366667
0.383333
0.591667
0.304167
0.375000
0.362500
0.366667
0.362500
0.345833
0.354167
0.350000
0.333333
0.404167
0.375000
0.333333
0.354167
0.354167
0.333333
0.345833
0.358333
0.325000
0.308333
0.358333
0.404167
0.354167
0.329167
0.345833
0.387500
0.412500
0.350000
0.358333
0.379167
0.420833
0.429167
0.379167
0.354167
0.345833
0.475000
0.254167
0.479167
0.400000
0.370833
0.383333
0.433333
0.420833
0.370833
0.429167
0.391667
0.362500
0.633333
0.525000
0.466667
0.283333
0.383333
0.400000
0.345833
0.333333
0.358333
0.425000
0.379167
0.345833
0.345833
0.358333
0.341667
0.358333
0.395833
0.383333
0.366667
0.433333
0.733333
0.312500
0.420833
0.416667
0.354167
0.241667
0.429167
0.429167
0.458333
0.395833
0.354167
0.358333
0.387500
0.391667
0.420833
0.358333
0.333333
0.487500
0.412500
0.345833
0.325000
0.387500
1.554167
1.325000
1.375000
1.116667
0.975000
0.979167
0.950000
0.970833
0.941667
0.945833
0.929167
0.950000
0.925000
0.941667
0.916667
0.933333
0.912500
0.925000
0.908333
0.920833
0.904167
0.916667
0.904167
0.816667
0.991667
0.908333
0.466667
0.233333
0.350000
0.616667
0.295833
1.029167
0.341667
0.383333
0.379167
1.166667
0.454167
0.341667
0.320833
0.520833
0.295833
1.091667
0.450000
0.341667
0.320833
0.354167
0.383333
0.362500
0.358333
0.354167
0.354167
1.829167
0.475000
0.362500
0.375000
0.695833
0.312500
1.241667
0.458333
0.362500
0.333333
0.712500
0.320833
0.366667
1.333333
0.462500
0.366667
0.341667
0.325000
0.358333
0.362500
0.341667
0.341667
0.350000
0.350000
0.345833
0.354167
0.358333
0.354167
0.358333
0.362500
0.354167
0.358333
0.362500
0.366667
0.358333
0.362500
0.354167
0.362500
0.370833
0.362500
0.358333
0.370833
0.366667
0.366667
0.362500
0.366667
0.362500
0.366667
0.366667
0.358333
0.358333
0.366667
0.362500
0.366667
0.366667
0.362500
0.362500
0.370833
0.370833
0.362500
0.366667
0.375000
0.362500
0.362500
0.362500
0.370833
0.375000
0.358333
0.362500
0.375000
0.362500
0.362500
0.358333
0.379167
0.370833
0.358333
0.354167
0.383333
0.383333
0.366667
0.354167
0.383333
0.366667
0.366667
0.370833
0.370833
0.358333
0.375000
0.375000
0.362500
0.370833
0.375000
0.370833
0.358333
0.370833
0.375000
0.362500
0.366667
0.370833
0.370833
0.362500
0.370833
0.370833
0.362500
0.366667
0.375000
0.366667
0.366667
0.366667
0.366667
0.362500
0.366667
0.370833
0.366667
0.358333
0.370833
0.366667
0.366667
0.362500
0.366667
0.362500
0.366667
0.358333
0.366667
0.362500
0.366667
0.366667
0.366667
0.362500
0.366667
0.358333
0.362500
0.370833
0.362500
0.354167
0.366667
0.370833
0.354167
0.366667
0.370833
0.358333
0.362500
0.366667
0.362500
0.358333
0.366667
0.366667
0.350000
0.366667
0.370833
0.341667
0.345833
0.366667
0.633333
0.320833
0.379167
0.366667
0.358333
0.350000
0.429167
0.408333
0.362500
0.425000
0.454167
0.400000
0.387500
0.516667
0.383333
0.379167
0.558333
0.250000
0.350000
0.358333
0.341667
0.325000
0.366667
0.400000
0.375000
0.358333
0.329167
0.354167
0.341667
0.341667
0.404167
0.387500
0.237500
0.454167
0.608333
0.287500
0.379167
0.366667
0.362500
0.362500
0.375000
0.395833
0.337500
0.350000
0.629167
0.300000
0.408333
0.237500
0.591667
0.616667
0.345833
0.391667
0.358333
0.375000
0.387500
0.241667
0.625000
0.450000
0.345833
0.304167
0.350000
0.358333
0.395833
0.404167
0.420833
0.391667
0.362500
0.362500
0.370833
0.454167
0.245833
0.537500
0.462500
0.245833
0.537500
0.412500
0.375000
0.345833
0.362500
0.387500
0.237500
0.541667
0.379167
0.354167
0.412500
0.241667
0.720833
0.683333
1.666667
1.041667
0.995833
0.995833
0.962500
0.991667
0.954167
0.975000
0.950000
0.975000
0.950000
0.962500
0.941667
0.958333
0.941667
0.941667
0.925000
0.941667
0.933333
0.925000
0.837500
1.016667
0.925000
0.925000
0.920833
0.920833
0.916667
0.916667
0.470833
0.212500
0.304167
0.383333
0.362500
0.337500
0.520833
0.262500
0.337500
0.325000
0.325000
0.333333
0.333333
0.329167
0.341667
0.337500
0.341667
0.345833
0.341667
0.337500
0.354167
0.375000
0.429167
0.379167
0.341667
0.358333
0.370833
0.370833
0.354167
0.337500
0.366667
0.391667
0.383333
0.695833
0.270833
0.316667
0.316667
0.379167
0.379167
0.366667
0.358333
0.345833
0.662500
0.270833
0.333333
0.325000
0.329167
0.329167
1.225000
1.379167
1.116667
1.183333
1.070833
1.129167
0.466667
0.333333
0.304167
0.320833
0.329167
0.245833
0.475000
0.345833
0.379167
0.370833
0.358333
0.354167
0.358333
0.362500
0.395833
0.387500
0.345833
0.750000
0.312500
1.320833
0.475000
0.375000
0.341667
0.325000
0.358333
0.375000
0.345833
0.341667
0.362500
0.362500
0.350000
0.362500
0.358333
0.350000
0.370833
0.370833
0.350000
0.370833
0.650000
0.554167
0.579167
1.679167
0.470833
0.362500
0.341667
0.354167
0.370833
0.350000
0.354167
0.362500
0.358333
0.375000
0.362500
0.354167
0.370833
0.375000
0.370833
0.358333
0.366667
0.383333
0.404167
0.458333
0.416667
0.400000
0.608333
0.683333
0.304167
0.387500
0.370833
0.362500
0.379167
0.387500
0.404167
0.370833
0.354167
0.362500
0.358333
0.362500
0.558333
0.412500
0.416667
0.358333
0.316667
0.391667
0.358333
0.345833
0.350000
0.366667
0.362500
0.400000
0.387500
0.370833
0.400000
0.400000
0.370833
0.358333
0.370833
0.366667
0.375000
0.362500
0.350000
0.341667
0.333333
0.425000
0.487500
0.412500
0.379167
0.350000
0.395833
0.629167
0.554167
1.341667
1.408333
1.420833
1.216667
1.175000
1.037500
1.237500
1.216667
0.991667
1.000000
0.979167
0.954167
0.958333
