0.554167
0.558333
0.558333
0.562500
0.554167
0.558333
0.558333
0.558333
0.558333
0.554167
0.558333
0.558333
0.562500
0.554167
0.554167
0.558333
0.558333
0.558333
0.554167
0.554167
0.558333
0.558333
0.558333
0.554167
0.554167
0.558333
0.558333
0.550000
0.558333
0.558333
0.558333
0.558333
0.554167
0.554167
0.562500
0.558333
0.554167
0.558333
0.558333
0.558333
0.558333
0.558333
0.558333
0.562500
0.562500
0.554167
0.562500
0.558333
0.562500
0.554167
0.558333
0.558333
0.558333
0.558333
0.558333
0.558333
0.562500
0.562500
0.558333
0.558333
0.562500
0.562500
0.558333
0.558333
0.558333
0.562500
0.558333
0.379167
0.708333
0.600000
0.575000
0.566667
0.558333
0.558333
0.562500
0.562500
0.554167
0.558333
0.562500
0.562500
0.554167
0.562500
0.558333
0.566667
0.562500
0.558333
0.558333
0.562500
0.566667
0.554167
0.558333
0.562500
0.562500
0.554167
0.558333
0.562500
0.562500
0.566667
0.554167
0.562500
0.562500
0.566667
0.558333
0.562500
0.558333
0.566667
0.558333
0.562500
0.558333
0.566667
0.558333
0.558333
0.562500
0.558333
0.562500
0.554167
0.562500
0.558333
0.562500
0.554167
0.558333
0.562500
0.562500
0.558333
0.558333
0.558333
0.558333
0.562500
0.554167
0.558333
0.558333
0.558333
0.558333
0.554167
0.558333
0.558333
0.558333
0.554167
0.554167
0.558333
0.558333
0.554167
0.558333
0.558333
0.558333
0.558333
0.558333
0.554167
0.562500
0.558333
0.554167
0.558333
0.562500
0.562500
0.554167
0.562500
0.558333
0.562500
0.558333
0.562500
0.558333
0.562500
0.562500
0.554167
0.558333
0.562500
0.558333
0.558333
0.558333
0.558333
0.562500
0.562500
0.558333
0.562500
0.562500
0.566667
0.558333
0.562500
0.562500
0.562500
0.562500
0.562500
0.562500
0.566667
0.562500
0.558333
0.566667
0.562500
0.562500
0.558333
0.562500
0.562500
0.566667
0.562500
0.562500
0.562500
0.566667
0.562500
0.558333
0.566667
0.562500
0.562500
0.562500
0.558333
0.566667
0.562500
0.558333
0.562500
0.562500
0.566667
0.558333
0.562500
0.562500
0.566667
0.562500
0.562500
0.562500
0.562500
0.562500
0.558333
0.562500
0.566667
0.562500
0.558333
0.562500
0.562500
0.566667
0.350000
0.712500
0.612500
0.583333
0.579167
0.575000
0.562500
0.566667
0.562500
0.558333
0.558333
0.562500
0.558333
0.558333
0.558333
0.562500
0.562500
0.562500
0.558333
0.562500
0.566667
0.562500
0.558333
0.566667
0.562500
0.566667
0.562500
0.562500
0.562500
0.566667
0.566667
0.558333
0.562500
0.566667
0.562500
0.558333
0.562500
0.562500
0.566667
0.562500
0.566667
0.562500
0.562500
0.562500
0.566667
0.562500
0.562500
0.562500
0.562500
0.562500
0.562500
0.566667
0.562500
0.566667
0.558333
0.562500
0.566667
0.562500
0.562500
0.562500
0.562500
0.566667
0.558333
0.562500
0.562500
0.566667
0.558333
0.558333
0.562500
0.562500
0.562500
0.558333
0.558333
0.566667
0.562500
0.558333
0.562500
0.562500
0.562500
0.562500
0.562500
0.566667
0.566667
0.562500
0.562500
0.566667
0.566667
0.566667
0.558333
0.566667
0.566667
0.566667
0.566667
0.558333
0.566667
0.562500
0.566667
0.558333
0.562500
0.562500
0.562500
0.558333
0.562500
0.562500
0.562500
0.558333
0.558333
0.566667
0.562500
0.554167
0.562500
0.562500
0.566667
0.562500
0.562500
0.562500
0.566667
0.562500
0.562500
0.562500
0.566667
0.566667
0.558333
0.562500
0.566667
0.566667
0.562500
0.562500
0.566667
0.566667
0.566667
0.558333
0.566667
0.562500
0.566667
0.562500
0.562500
0.566667
0.566667
0.562500
0.562500
0.566667
0.566667
0.566667
0.558333
0.562500
0.562500
0.562500
0.558333
0.562500
0.562500
0.562500
0.566667
0.558333
0.562500
0.566667
0.562500
0.562500
0.566667
0.562500
0.570833
0.566667
0.562500
0.566667
0.566667
0.566667
0.562500
0.562500
0.566667
0.566667
0.558333
0.566667
0.562500
0.566667
0.566667
0.562500
0.566667
0.566667
0.566667
0.566667
0.566667
0.570833
0.562500
0.566667
0.566667
0.570833
0.570833
0.570833
0.575000
0.575000
0.579167
0.570833
0.575000
0.575000
0.575000
0.570833
0.570833
0.575000
0.570833
0.570833
0.566667
0.566667
0.570833
0.566667
0.566667
0.575000
0.575000
0.570833
0.566667
0.558333
0.562500
0.562500
0.562500
0.558333
0.566667
0.562500
0.558333
0.558333
0.558333
0.554167
0.558333
0.558333
0.554167
0.562500
0.558333
0.554167
0.558333
0.554167
0.558333
0.554167
0.554167
0.558333
0.558333
0.550000
0.554167
0.554167
0.558333
0.554167
0.550000
0.554167
0.554167
0.554167
0.550000
0.550000
0.554167
0.554167
0.550000
0.554167
0.554167
0.554167
0.550000
0.554167
0.550000
0.558333
0.554167
0.550000
0.554167
0.554167
0.554167
0.545833
0.550000
0.554167
0.554167
0.545833
0.550000
0.550000
0.554167
0.550000
0.550000
0.550000
0.554167
0.554167
0.550000
0.550000
0.554167
0.554167
0.550000
0.550000
0.554167
0.554167
0.550000
0.550000
0.554167
0.554167
0.550000
0.554167
0.550000
0.558333
0.554167
0.550000
0.550000
0.558333
0.554167
0.550000
0.554167
1.112500
0.562500
0.554167
0.558333
0.554167
0.558333
0.554167
0.554167
0.554167
0.558333
0.554167
0.554167
0.554167
0.562500
0.554167
0.554167
0.554167
0.558333
0.558333
0.558333
0.554167
0.558333
0.558333
0.554167
0.558333
0.558333
0.562500
0.554167
0.558333
0.558333
0.562500
0.558333
0.554167
0.558333
0.558333
0.558333
0.554167
0.554167
0.558333
0.558333
0.550000
0.554167
0.558333
0.558333
0.550000
0.558333
0.554167
0.558333
0.558333
0.554167
0.554167
0.558333
0.558333
0.554167
0.558333
0.558333
0.558333
0.554167
0.558333
0.558333
0.558333
0.554167
0.554167
0.558333
0.558333
0.562500
0.554167
0.558333
0.558333
0.562500
0.554167
0.558333
0.558333
0.562500
0.558333
0.558333
0.558333
0.558333
0.558333
0.554167
0.558333
0.558333
0.562500
0.420833
0.662500
0.579167
0.566667
0.562500
0.558333
0.558333
0.558333
0.558333
0.558333
0.558333
0.554167
0.562500
0.562500
0.554167
0.558333
0.558333
0.562500
0.554167
0.558333
0.562500
0.558333
0.554167
0.558333
0.558333
0.562500
0.562500
0.554167
0.558333
0.562500
0.558333
0.554167
0.558333
0.562500
0.558333
0.558333
0.558333
0.558333
0.562500
0.554167
0.558333
0.562500
0.558333
0.554167
0.562500
0.558333
0.562500
0.554167
0.558333
0.558333
0.562500
0.558333
0.558333
0.562500
0.562500
0.562500
0.554167
0.558333
0.558333
0.562500
0.554167
0.554167
0.558333
0.550000
0.558333
0.558333
0.550000
0.554167
0.554167
0.554167
0.554167
0.554167
0.554167
0.554167
0.554167
0.554167
0.558333
0.550000
0.554167
0.554167
0.558333
0.550000
0.554167
0.554167
0.554167
0.554167
0.550000
0.554167
0.554167
0.550000
0.550000
0.554167
0.550000
0.554167
0.550000
0.554167
0.554167
0.558333
0.370833
0.691667
0.587500
0.566667
0.562500
0.554167
0.558333
0.554167
0.550000
0.554167
0.554167
0.554167
0.554167
0.550000
0.558333
0.379167
0.670833
0.575000
0.562500
0.558333
0.554167
0.554167
0.554167
0.558333
0.558333
0.554167
0.554167
0.554167
0.558333
0.554167
0.550000
0.558333
0.558333
0.550000
0.554167
0.558333
0.558333
0.550000
0.554167
0.558333
0.558333
0.550000
0.558333
0.554167
0.562500
0.558333
0.554167
0.554167
0.558333
0.558333
0.550000
0.554167
0.558333
0.558333
0.550000
0.554167
0.558333
0.554167
0.554167
0.554167
0.554167
0.554167
0.554167
0.554167
0.554167
0.558333
0.554167
0.554167
0.554167
0.558333
0.558333
0.554167
0.554167
0.558333
0.558333
0.554167
0.554167
0.558333
0.558333
0.554167
0.554167
0.554167
0.558333
0.554167
0.558333
0.554167
0.558333
0.558333
0.554167
0.554167
0.558333
0.558333
0.554167
0.554167
0.366667
0.750000
0.566667
0.554167
0.558333
0.554167
0.554167
0.554167
0.554167
0.558333
0.558333
0.550000
0.554167
0.554167
0.558333
0.550000
0.554167
0.554167
0.558333
0.554167
0.550000
0.554167
0.375000
0.729167
0.558333
0.554167
0.545833
0.550000
0.554167
0.545833
0.550000
0.550000
0.554167
0.550000
0.550000
0.554167
0.554167
0.554167
0.545833
0.554167
0.554167
0.554167
0.554167
0.550000
0.558333
0.558333
0.550000
0.554167
0.558333
0.554167
0.554167
0.554167
0.554167
0.558333
0.554167
0.554167
0.558333
0.558333
0.550000
0.558333
0.554167
0.558333
0.379167
0.700000
0.587500
0.566667
0.566667
0.554167
0.554167
0.558333
0.558333
0.554167
0.554167
0.562500
0.558333
0.554167
0.558333
0.558333
0.562500
0.554167
0.558333
0.554167
0.562500
0.558333
0.554167
0.558333
0.558333
0.554167
0.554167
0.558333
0.558333
0.558333
0.550000
0.554167
0.558333
0.558333
0.554167
0.558333
0.558333
0.554167
0.554167
0.554167
0.558333
0.558333
0.554167
0.554167
0.554167
0.558333
0.558333
0.554167
0.554167
0.558333
0.558333
0.554167
0.554167
0.558333
0.558333
0.550000
0.558333
0.558333
0.558333
0.375000
0.704167
0.587500
0.566667
0.562500
0.554167
0.554167
0.554167
0.558333
0.550000
0.550000
0.554167
0.558333
0.554167
0.550000
0.554167
0.558333
0.558333
0.550000
0.554167
0.554167
0.558333
0.554167
0.554167
0.558333
0.558333
0.558333
0.562500
0.562500
0.562500
0.558333
0.554167
0.554167
0.558333
0.558333
0.550000
0.554167
0.554167
0.558333
0.554167
0.550000
0.558333
0.550000
0.554167
0.558333
0.558333
0.550000
0.554167
0.554167
0.554167
0.550000
0.554167
0.554167
0.554167
0.550000
0.554167
0.554167
0.558333
0.554167
0.554167
0.554167
0.558333
0.558333
0.550000
0.554167
0.558333
0.554167
0.554167
0.554167
0.554167
0.558333
0.558333
0.554167
0.554167
0.554167
0.558333
0.550000
0.554167
0.558333
0.554167
0.550000
0.550000
0.554167
0.558333
0.545833
0.554167
0.554167
0.554167
0.550000
0.550000
0.554167
0.554167
0.545833
0.554167
0.550000
0.554167
0.554167
0.550000
0.550000
0.554167
0.554167
0.550000
0.554167
0.554167
0.554167
0.550000
0.554167
0.554167
0.554167
0.550000
0.554167
0.554167
0.558333
0.550000
0.554167
0.554167
0.554167
0.554167
0.550000
0.558333
0.554167
0.550000
0.554167
0.554167
0.558333
0.550000
0.550000
0.554167
0.558333
0.550000
0.550000
0.550000
0.558333
0.550000
0.550000
0.554167
0.550000
0.558333
0.545833
0.554167
0.554167
0.375000
0.675000
0.575000
0.558333
0.558333
0.554167
0.558333
0.554167
0.554167
0.558333
0.550000
0.554167
0.554167
0.558333
0.545833
0.550000
0.558333
0.554167
0.545833
0.554167
0.554167
0.550000
0.550000
0.554167
0.554167
0.554167
0.545833
0.554167
0.554167
0.554167
0.545833
0.554167
0.554167
0.554167
0.545833
0.550000
0.554167
0.554167
0.550000
0.550000
0.558333
0.554167
0.545833
0.554167
0.554167
0.554167
0.545833
0.554167
0.554167
0.554167
0.554167
0.554167
0.554167
0.558333
0.554167
0.554167
0.554167
0.558333
