0.595833
0.370833
0.616667
0.383333
0.441667
0.425000
0.400000
0.458333
0.425000
0.333333
0.579167
0.429167
0.466667
0.404167
0.333333
0.495833
0.362500
0.437500
0.470833
0.375000
0.320833
0.345833
0.433333
0.366667
0.591667
0.470833
0.450000
0.483333
0.416667
0.383333
0.391667
0.420833
0.483333
0.512500
0.341667
0.462500
0.441667
0.437500
0.500000
0.400000
0.337500
0.454167
0.483333
0.329167
0.362500
0.341667
0.495833
0.354167
0.508333
0.475000
0.337500
0.554167
0.420833
0.458333
0.345833
0.358333
0.479167
0.400000
0.329167
0.558333
0.429167
0.404167
0.362500
0.487500
0.433333
0.479167
0.362500
0.412500
0.429167
0.333333
0.554167
0.379167
0.433333
0.350000
0.354167
0.416667
0.470833
0.454167
0.445833
0.366667
0.329167
0.454167
0.616667
0.366667
0.429167
0.416667
0.429167
0.337500
0.395833
0.337500
0.437500
0.462500
0.445833
0.441667
0.329167
0.395833
0.354167
0.529167
0.416667
0.516667
0.470833
0.354167
0.533333
0.425000
0.620833
0.425000
0.329167
0.408333
0.350000
0.362500
0.458333
0.333333
0.362500
0.466667
0.337500
0.325000
0.383333
0.558333
0.366667
0.379167
0.487500
0.779167
0.408333
0.370833
0.387500
0.354167
0.616667
0.383333
0.404167
0.441667
0.566667
0.466667
0.333333
0.375000
0.500000
0.337500
0.308333
0.350000
0.466667
0.541667
0.341667
0.450000
0.654167
0.370833
0.620833
0.416667
0.333333
0.408333
0.329167
0.391667
0.483333
0.366667
0.370833
0.337500
0.420833
0.433333
0.341667
0.379167
0.362500
0.420833
0.337500
0.400000
0.333333
0.416667
0.341667
0.408333
0.337500
0.308333
0.395833
0.658333
0.391667
0.312500
0.437500
0.358333
0.345833
0.358333
0.316667
0.416667
0.508333
0.433333
0.637500
0.416667
0.408333
0.341667
0.858333
0.725000
0.420833
0.354167
0.362500
0.545833
0.775000
0.437500
0.420833
0.437500
0.333333
0.416667
0.345833
0.562500
0.450000
0.354167
0.370833
0.491667
0.391667
0.345833
0.370833
0.654167
0.462500
0.325000
0.362500
0.329167
0.450000
0.700000
0.395833
0.329167
0.400000
0.433333
0.341667
0.462500
0.412500
0.341667
0.591667
0.387500
0.366667
0.366667
0.620833
0.408333
0.445833
0.433333
0.329167
0.545833
0.591667
0.379167
0.337500
0.433333
0.375000
0.429167
0.420833
0.358333
0.516667
0.495833
0.337500
0.395833
0.425000
0.333333
0.404167
0.412500
0.383333
0.345833
0.354167
0.358333
0.387500
0.329167
0.416667
0.337500
0.620833
0.391667
0.329167
0.400000
0.470833
0.341667
0.370833
0.350000
0.520833
0.375000
0.354167
0.375000
0.358333
0.366667
0.329167
0.441667
0.608333
0.554167
0.350000
0.379167
0.433333
0.458333
0.341667
0.362500
0.362500
0.387500
0.483333
0.429167
0.466667
0.341667
0.370833
0.337500
0.400000
0.425000
0.441667
0.333333
0.395833
0.387500
0.475000
0.550000
0.391667
0.337500
0.366667
0.454167
0.341667
0.429167
0.400000
0.325000
0.358333
0.520833
0.345833
0.354167
0.412500
0.366667
0.379167
0.325000
0.441667
0.425000
0.487500
0.445833
0.333333
0.608333
0.379167
0.316667
0.425000
0.366667
0.512500
0.366667
0.295833
0.445833
0.341667
0.329167
0.391667
0.504167
0.429167
0.325000
0.345833
0.404167
0.325000
0.650000
0.408333
0.370833
0.358333
0.408333
0.345833
0.437500
0.645833
0.404167
0.350000
0.679167
0.733333
0.429167
0.333333
0.358333
0.408333
0.429167
0.445833
0.354167
0.458333
0.475000
0.491667
0.345833
0.350000
0.337500
0.429167
0.458333
0.483333
0.408333
0.395833
0.345833
0.466667
0.404167
0.354167
0.333333
0.354167
0.366667
0.337500
0.425000
0.375000
0.420833
0.408333
0.466667
0.433333
0.412500
0.416667
0.458333
0.429167
0.400000
0.337500
0.370833
0.433333
0.337500
0.704167
0.970833
0.729167
0.466667
0.400000
0.395833
0.366667
0.366667
0.416667
0.375000
0.429167
0.437500
0.341667
0.391667
0.437500
0.483333
0.341667
0.437500
0.345833
0.479167
0.425000
0.383333
0.433333
0.345833
0.483333
0.387500
0.420833
0.362500
0.425000
0.500000
0.337500
0.454167
0.350000
0.333333
0.445833
0.333333
0.383333
0.337500
0.408333
0.420833
0.329167
0.370833
0.366667
0.387500
0.425000
0.441667
0.337500
0.366667
0.408333
0.350000
0.408333
0.333333
0.325000
0.404167
0.416667
0.420833
0.504167
0.841667
0.433333
0.337500
0.383333
0.325000
0.420833
0.345833
0.304167
0.591667
0.370833
0.287500
0.541667
0.745833
0.716667
0.395833
0.325000
0.408333
0.400000
0.320833
0.387500
0.375000
0.470833
0.358333
0.420833
0.454167
0.358333
0.412500
0.391667
0.433333
0.350000
0.366667
0.354167
0.587500
0.379167
0.612500
0.425000
0.337500
0.366667
0.408333
0.320833
0.520833
0.395833
0.333333
0.433333
0.325000
0.741667
0.925000
0.445833
0.425000
0.412500
0.475000
0.366667
0.400000
0.425000
0.370833
0.350000
0.333333
0.562500
0.370833
0.320833
0.354167
0.325000
0.491667
0.370833
0.337500
0.429167
0.433333
0.429167
0.429167
0.425000
0.437500
0.341667
0.425000
0.375000
0.370833
0.437500
0.608333
0.370833
0.558333
0.458333
0.508333
0.366667
0.350000
0.341667
0.433333
0.454167
0.358333
0.550000
0.425000
0.441667
0.354167
0.429167
0.391667
0.354167
0.366667
0.337500
0.641667
0.445833
0.445833
0.350000
0.400000
0.370833
0.316667
0.337500
0.587500
0.425000
0.333333
0.429167
0.483333
0.341667
0.550000
0.404167
0.375000
0.400000
0.333333
0.579167
0.441667
0.329167
0.437500
0.395833
0.337500
0.466667
0.341667
0.545833
0.429167
0.333333
0.370833
0.329167
0.454167
0.454167
0.325000
0.400000
0.337500
0.454167
0.383333
0.570833
0.395833
0.400000
0.345833
0.375000
0.391667
0.350000
0.329167
0.462500
0.425000
0.420833
0.379167
0.337500
0.412500
0.345833
0.445833
0.341667
0.345833
0.454167
0.579167
0.383333
0.537500
0.412500
0.420833
0.445833
0.345833
0.466667
0.350000
0.341667
0.391667
0.466667
0.350000
0.554167
0.500000
0.520833
0.358333
0.491667
0.437500
0.500000
0.379167
0.416667
0.466667
0.329167
0.454167
0.420833
0.345833
0.429167
0.454167
0.333333
0.441667
0.354167
0.358333
0.320833
0.387500
0.329167
0.383333
0.470833
0.325000
0.379167
0.333333
0.312500
0.433333
0.404167
0.408333
0.329167
0.366667
0.395833
0.362500
0.445833
0.329167
0.475000
0.408333
0.350000
0.391667
0.420833
0.329167
0.441667
0.345833
0.320833
0.462500
0.329167
0.345833
0.462500
0.662500
0.379167
0.358333
0.383333
0.358333
0.420833
0.329167
0.450000
0.345833
0.345833
0.450000
0.320833
0.379167
0.504167
0.370833
0.350000
0.400000
0.341667
0.400000
0.333333
0.591667
0.387500
0.433333
0.354167
0.391667
0.483333
0.395833
0.545833
0.354167
0.366667
0.454167
0.458333
0.325000
0.575000
0.387500
0.529167
0.370833
0.291667
0.329167
0.404167
0.420833
0.412500
0.437500
0.333333
0.316667
0.337500
0.404167
0.433333
0.329167
0.379167
0.379167
0.395833
0.337500
0.445833
0.583333
0.475000
0.395833
0.441667
0.329167
0.629167
0.508333
0.333333
0.562500
0.529167
0.445833
0.412500
0.395833
0.362500
0.370833
0.416667
0.329167
0.595833
0.366667
0.495833
0.354167
0.491667
0.466667
0.329167
0.370833
0.341667
0.387500
0.412500
0.329167
0.400000
0.454167
0.325000
0.325000
0.587500
0.750000
0.454167
0.420833
0.341667
0.425000
0.450000
0.400000
0.416667
0.325000
0.320833
0.550000
0.437500
0.429167
0.337500
0.550000
0.379167
0.554167
0.370833
0.275000
0.537500
0.387500
0.533333
0.737500
0.645833
0.391667
0.450000
0.529167
0.362500
0.387500
0.400000
0.333333
0.341667
0.412500
0.579167
0.395833
0.320833
0.362500
0.441667
0.433333
0.450000
0.333333
0.329167
0.354167
0.458333
0.345833
0.325000
0.383333
0.350000
0.354167
0.308333
0.550000
0.445833
0.366667
0.329167
0.337500
0.450000
0.337500
0.441667
0.341667
0.420833
0.450000
0.450000
0.337500
0.366667
0.337500
0.445833
0.404167
0.337500
0.412500
0.354167
0.383333
0.329167
0.333333
0.358333
0.508333
0.354167
0.304167
0.445833
0.358333
0.429167
0.358333
0.358333
0.354167
0.412500
0.350000
0.433333
0.341667
0.329167
0.329167
0.404167
0.341667
0.416667
0.333333
0.495833
0.520833
0.370833
0.366667
0.458333
0.320833
0.279167
0.450000
0.333333
0.312500
0.483333
0.454167
0.408333
0.358333
0.387500
0.379167
0.350000
0.325000
0.370833
0.375000
0.333333
0.354167
0.437500
0.325000
0.358333
0.479167
0.320833
0.425000
0.341667
0.341667
0.395833
0.375000
0.325000
0.387500
0.450000
0.320833
0.362500
0.395833
0.329167
0.333333
0.320833
0.420833
0.433333
0.312500
0.570833
0.400000
0.441667
0.383333
0.504167
0.362500
0.379167
0.316667
0.483333
0.375000
0.375000
0.366667
0.462500
0.341667
0.254167
0.533333
0.825000
0.466667
0.387500
0.412500
0.479167
0.412500
0.366667
0.337500
0.375000
0.345833
0.425000
0.358333
0.408333
0.333333
0.466667
0.462500
0.412500
0.316667
0.370833
0.320833
0.379167
0.433333
0.345833
0.395833
0.333333
0.333333
0.337500
0.400000
0.316667
0.375000
0.425000
0.412500
0.316667
0.291667
0.295833
0.391667
0.429167
0.316667
0.445833
0.341667
0.345833
0.358333
0.612500
0.375000
0.325000
0.333333
0.387500
0.304167
0.425000
0.358333
0.308333
0.304167
0.325000
0.429167
0.408333
0.333333
0.391667
0.500000
0.416667
0.304167
0.383333
0.316667
0.316667
0.358333
0.333333
0.458333
0.341667
0.383333
0.316667
0.466667
0.412500
0.170833
0.466667
0.354167
0.333333
0.350000
0.520833
0.400000
0.383333
0.366667
0.320833
0.370833
0.320833
0.295833
0.341667
0.387500
0.533333
0.362500
0.379167
0.412500
0.362500
0.354167
0.312500
0.366667
0.316667
0.279167
0.445833
0.312500
0.579167
0.425000
0.325000
0.287500
0.300000
0.395833
0.320833
0.283333
0.350000
0.329167
0.395833
0.345833
0.312500
0.304167
0.412500
0.325000
0.379167
0.304167
0.391667
0.466667
0.425000
0.400000
0.304167
0.350000
0.312500
0.408333
0.316667
0.262500
0.441667
0.375000
0.495833
0.333333
0.329167
0.329167
0.404167
0.320833
0.404167
0.333333
0.358333
0.320833
0.354167
0.320833
0.420833
0.341667
0.320833
0.366667
0.383333
0.687500
0.400000
0.291667
0.312500
0.387500
0.316667
0.308333
0.354167
0.316667
0.320833
0.304167
0.437500
0.316667
0.333333
0.475000
0.437500
0.312500
0.420833
0.308333
0.287500
0.354167
0.795833
0.395833
0.325000
0.291667
0.383333
0.379167
0.391667
0.325000
0.291667
0.316667
0.404167
0.412500
0.300000
0.391667
0.308333
0.370833
0.350000
0.295833
0.325000
0.337500
0.400000
0.383333
0.312500
0.304167
0.300000
0.316667
0.425000
0.312500
0.304167
0.379167
0.295833
0.295833
0.370833
0.425000
0.308333
0.283333
0.287500
0.437500
0.341667
0.395833
0.425000
0.308333
0.304167
0.408333
0.362500
0.295833
0.287500
0.533333
0.808333
0.304167
0.266667
0.295833
0.295833
0.437500
0.333333
0.520833
0.337500
0.350000
0.412500
0.295833
0.425000
0.445833
0.329167
0.366667
0.391667
0.679167
0.316667
0.308333
0.541667
0.241667
0.537500
0.337500
0.366667
0.345833
0.395833
0.354167
0.541667
0.341667
0.241667
0.295833
0.450000
0.329167
0.412500
0.316667
0.383333
0.316667
0.283333
0.400000
0.300000
0.383333
0.375000
0.312500
0.416667
0.300000
0.345833
0.425000
0.420833
0.308333
0.408333
0.316667
0.241667
0.283333
0.429167
0.341667
0.491667
0.325000
0.508333
0.333333
0.462500
0.362500
0.420833
0.362500
0.304167
0.325000
0.529167
0.341667
0.320833
0.391667
0.295833
0.366667
0.304167
0.329167
0.325000
0.387500
0.470833
0.550000
0.337500
0.379167
0.320833
0.320833
0.358333
0.325000
0.295833
0.420833
0.362500
0.325000
0.429167
0.404167
0.462500
0.370833
0.316667
0.308333
0.529167
0.333333
0.370833
0.379167
0.354167
0.691667
0.370833
0.433333
0.300000
0.391667
0.312500
0.270833
0.550000
0.775000
0.345833
0.483333
0.350000
0.308333
0.387500
0.320833
0.358333
0.325000
0.483333
0.329167
0.333333
0.354167
0.350000
0.395833
0.320833
0.408333
0.308333
0.320833
0.412500
0.362500
0.441667
0.483333
0.316667
0.283333
0.425000
0.304167
0.408333
0.300000
0.429167
0.316667
0.250000
0.375000
0.454167
0.395833
0.487500
0.412500
0.429167
0.312500
0.404167
0.325000
0.345833
0.404167
0.320833
0.395833
0.308333
0.241667
0.391667
0.458333
0.308333
0.429167
0.358333
0.295833
0.283333
0.416667
0.312500
0.312500
0.325000
0.370833
0.391667
0.295833
0.329167
0.504167
0.316667
0.341667
0.425000
0.316667
0.420833
0.300000
0.516667
0.420833
0.166667
0.320833
0.304167
0.570833
0.354167
0.237500
0.350000
0.325000
0.370833
0.412500
0.312500
0.291667
0.341667
0.291667
0.300000
0.379167
0.345833
0.291667
0.287500
0.404167
0.325000
0.333333
0.391667
0.400000
0.312500
0.300000
0.312500
0.429167
0.308333
0.279167
0.391667
0.404167
0.300000
0.520833
0.341667
0.454167
0.391667
0.454167
0.320833
0.387500
0.404167
0.262500
0.391667
0.400000
0.308333
0.358333
0.308333
0.433333
0.379167
0.300000
0.291667
0.358333
0.329167
0.287500
0.291667
0.379167
0.312500
0.400000
0.312500
0.300000
0.337500
0.400000
0.358333
0.308333
0.370833
0.295833
0.350000
0.304167
0.266667
0.400000
0.354167
0.329167
0.337500
0.358333
0.479167
0.229167
0.333333
0.325000
0.291667
0.450000
0.366667
0.291667
0.270833
0.341667
0.300000
0.529167
0.458333
0.304167
0.354167
0.308333
0.379167
0.304167
0.375000
0.333333
0.304167
0.387500
0.204167
0.312500
0.391667
0.370833
0.412500
0.345833
0.312500
0.283333
0.291667
0.370833
0.366667
0.291667
0.433333
0.308333
0.366667
0.400000
0.300000
0.395833
0.370833
0.316667
0.333333
0.483333
0.316667
0.329167
0.362500
0.300000
0.275000
0.325000
0.479167
0.420833
0.387500
0.333333
0.325000
0.370833
0.404167
0.379167
0.379167
0.400000
0.433333
0.308333
0.450000
0.387500
0.333333
0.329167
0.404167
0.437500
0.429167
0.312500
0.387500
0.329167
0.458333
0.366667
0.308333
0.370833
0.420833
0.287500
0.375000
0.304167
0.333333
0.429167
0.308333
0.400000
0.416667
0.391667
0.320833
0.404167
0.308333
0.312500
0.291667
0.295833
0.429167
0.429167
0.325000
0.420833
0.304167
0.308333
0.395833
0.429167
0.383333
0.429167
0.254167
0.350000
0.291667
0.395833
0.400000
0.283333
0.379167
0.320833
0.275000
0.375000
0.300000
0.283333
0.358333
0.283333
0.500000
0.229167
0.433333
0.425000
0.308333
0.291667
0.366667
0.295833
0.470833
0.350000
0.404167
0.412500
0.312500
0.383333
0.383333
0.304167
0.383333
0.312500
0.354167
0.325000
0.283333
0.537500
0.229167
0.379167
0.304167
0.383333
0.325000
0.408333
0.320833
0.375000
0.379167
0.312500
0.291667
0.366667
0.375000
0.304167
0.279167
0.366667
0.291667
0.387500
0.341667
0.337500
0.308333
0.395833
0.308333
0.316667
0.316667
0.370833
0.404167
0.291667
0.287500
0.362500
0.341667
0.300000
0.350000
0.395833
0.333333
0.270833
0.462500
0.350000
0.300000
0.395833
0.300000
0.383333
0.300000
0.800000
0.287500
0.287500
0.325000
0.450000
0.287500
0.287500
0.458333
0.370833
0.362500
0.337500
0.300000
0.412500
0.466667
0.304167
0.362500
0.454167
0.345833
0.354167
0.333333
0.300000
0.391667
0.304167
0.275000
0.462500
0.316667
0.316667
0.375000
0.375000
0.329167
0.387500
0.312500
0.575000
0.337500
0.237500
0.379167
0.562500
0.329167
0.341667
0.312500
0.366667
