0.583333
0.583333
0.583333
0.579167
0.579167
0.579167
0.583333
0.579167
0.583333
0.579167
0.583333
0.579167
0.583333
0.575000
0.583333
0.575000
0.575000
0.608333
0.695833
0.479167
0.587500
0.583333
0.587500
0.587500
0.587500
0.587500
0.587500
0.587500
0.329167
0.258333
0.583333
0.591667
0.587500
0.591667
0.583333
0.579167
0.583333
0.583333
0.579167
0.595833
0.587500
0.583333
0.583333
0.583333
0.579167
0.579167
0.583333
0.583333
0.579167
0.579167
0.583333
0.579167
0.579167
0.579167
0.583333
0.575000
0.579167
0.579167
0.579167
0.575000
0.579167
0.579167
0.575000
0.579167
0.579167
0.579167
0.579167
0.570833
0.579167
0.575000
0.575000
0.587500
0.575000
0.579167
0.575000
0.579167
0.579167
0.579167
0.579167
0.583333
0.579167
0.583333
0.579167
0.583333
0.579167
0.575000
0.579167
0.254167
0.320833
0.575000
0.575000
0.570833
0.575000
0.570833
0.570833
0.575000
0.575000
0.575000
0.575000
0.579167
0.579167
0.579167
0.575000
0.566667
0.579167
0.570833
0.579167
0.583333
0.583333
0.583333
0.579167
0.579167
0.579167
0.575000
0.579167
0.579167
0.579167
0.575000
0.579167
0.575000
0.579167
0.575000
0.579167
0.575000
0.579167
0.575000
0.575000
0.579167
0.579167
0.579167
0.283333
0.295833
0.570833
0.570833
0.566667
0.587500
0.570833
0.579167
0.579167
0.575000
0.583333
0.575000
0.575000
0.575000
0.579167
0.570833
0.575000
0.379167
0.391667
0.283333
0.454167
0.383333
0.416667
0.575000
0.587500
0.570833
0.570833
0.566667
0.575000
0.570833
0.570833
0.570833
0.583333
0.566667
0.579167
0.583333
0.575000
0.579167
0.558333
0.583333
0.554167
0.570833
0.325000
0.245833
0.320833
0.420833
0.391667
0.562500
0.437500
1.262500
0.562500
0.566667
0.570833
0.562500
1.129167
0.562500
0.558333
0.545833
0.583333
1.133333
0.562500
0.554167
0.562500
0.562500
0.558333
0.558333
0.291667
0.270833
0.470833
0.650000
0.562500
0.558333
0.558333
0.554167
0.575000
0.558333
0.562500
0.562500
0.558333
0.562500
0.562500
0.558333
0.566667
0.475000
0.654167
0.558333
0.220833
0.487500
0.458333
0.520833
0.558333
0.554167
0.562500
0.570833
0.558333
0.562500
0.558333
0.558333
0.562500
0.558333
0.558333
0.558333
0.558333
0.558333
0.558333
0.558333
0.558333
0.562500
0.558333
0.566667
0.562500
0.562500
0.562500
0.562500
0.562500
0.562500
0.562500
0.562500
0.566667
0.562500
0.562500
0.558333
0.558333
0.562500
0.562500
0.558333
0.558333
0.558333
0.558333
0.554167
0.558333
0.562500
0.550000
0.570833
0.562500
0.562500
0.554167
0.562500
0.558333
0.554167
0.558333
0.554167
0.562500
0.558333
0.466667
0.633333
0.558333
0.558333
0.554167
0.554167
0.554167
0.558333
0.558333
0.558333
0.550000
0.545833
0.116667
0.245833
0.425000
0.312500
0.291667
0.291667
0.558333
0.562500
0.550000
0.250000
0.245833
0.333333
0.779167
0.212500
0.329167
0.433333
0.262500
0.508333
0.554167
0.562500
0.562500
0.562500
0.558333
0.566667
0.562500
0.562500
0.558333
0.554167
0.558333
0.554167
0.550000
0.562500
0.550000
0.579167
0.579167
0.570833
0.566667
0.554167
0.583333
0.566667
0.575000
0.566667
0.570833
0.566667
0.566667
0.558333
0.554167
0.575000
0.583333
0.570833
0.570833
0.562500
0.570833
0.566667
0.566667
0.566667
0.566667
0.562500
0.562500
0.566667
0.566667
0.562500
0.562500
0.558333
0.550000
0.579167
0.575000
0.562500
0.570833
0.562500
0.566667
0.566667
0.566667
0.566667
0.566667
0.566667
0.570833
0.566667
0.566667
0.566667
0.566667
0.570833
0.562500
0.566667
0.570833
0.558333
0.562500
0.575000
0.566667
0.566667
0.562500
0.379167
0.775000
0.566667
0.570833
0.575000
0.583333
0.575000
0.595833
0.570833
0.591667
0.579167
0.591667
0.591667
0.579167
0.579167
0.579167
0.575000
0.575000
0.579167
0.575000
0.575000
0.570833
0.579167
0.562500
0.587500
0.591667
0.575000
0.583333
0.579167
0.579167
0.579167
0.579167
0.579167
0.579167
0.583333
0.579167
0.579167
0.583333
0.583333
0.583333
0.566667
0.570833
0.566667
0.604167
0.583333
0.579167
0.579167
0.583333
0.579167
0.579167
0.583333
0.579167
0.583333
0.579167
0.579167
0.579167
0.583333
0.575000
0.570833
0.575000
0.575000
0.570833
0.595833
0.583333
0.579167
0.575000
0.579167
0.579167
0.575000
0.579167
0.575000
0.575000
0.575000
0.575000
0.575000
0.575000
0.575000
0.579167
0.570833
0.579167
0.575000
0.575000
0.566667
0.558333
0.616667
0.583333
0.583333
0.579167
0.579167
0.583333
0.587500
0.579167
0.583333
0.583333
0.583333
0.579167
0.575000
0.583333
0.583333
0.579167
0.566667
0.575000
0.595833
0.583333
0.583333
0.575000
0.587500
0.587500
0.583333
0.587500
0.587500
0.587500
0.587500
0.591667
0.575000
0.575000
0.612500
0.595833
0.587500
0.587500
0.591667
0.591667
0.587500
0.587500
0.583333
0.591667
0.587500
0.587500
0.587500
0.587500
0.591667
0.587500
0.587500
0.587500
0.579167
0.583333
0.583333
0.591667
0.587500
0.583333
0.583333
0.604167
0.595833
0.587500
0.825000
0.345833
0.587500
0.587500
0.587500
0.583333
0.587500
0.587500
0.583333
0.583333
0.587500
0.583333
0.587500
0.579167
0.587500
0.587500
0.583333
0.583333
0.587500
0.579167
0.570833
0.575000
0.604167
0.587500
0.583333
0.579167
0.583333
0.579167
0.583333
0.583333
0.583333
0.583333
0.579167
0.587500
0.587500
0.583333
0.587500
0.583333
0.587500
0.591667
0.570833
0.579167
0.620833
0.591667
0.595833
0.591667
0.587500
0.595833
0.591667
0.591667
0.387500
0.204167
0.587500
0.595833
0.591667
0.583333
0.583333
0.587500
0.600000
0.587500
0.591667
0.587500
0.595833
0.587500
0.579167
0.600000
0.587500
0.587500
0.587500
0.608333
0.591667
0.591667
0.595833
0.591667
0.587500
0.587500
0.587500
0.591667
0.587500
0.591667
0.587500
0.591667
0.591667
0.587500
0.587500
0.583333
0.570833
0.583333
0.612500
0.583333
0.591667
0.587500
0.591667
0.587500
0.583333
0.591667
0.591667
0.591667
0.587500
0.595833
0.587500
0.591667
0.595833
0.591667
0.587500
0.591667
0.591667
0.595833
0.587500
0.545833
0.637500
0.595833
0.591667
0.591667
0.587500
0.595833
0.587500
0.591667
0.587500
0.591667
0.591667
0.700000
0.241667
0.333333
0.483333
0.229167
0.366667
0.208333
0.504167
0.241667
0.283333
0.520833
0.583333
0.583333
0.595833
0.579167
0.587500
0.608333
0.587500
0.583333
0.587500
0.591667
0.583333
0.583333
0.583333
0.591667
0.587500
0.587500
0.583333
0.587500
0.591667
0.587500
0.587500
0.329167
0.258333
0.587500
0.579167
0.587500
0.595833
0.595833
0.595833
1.004167
0.225000
0.220833
0.225000
0.366667
0.225000
0.383333
0.254167
0.229167
0.491667
0.383333
0.420833
0.229167
0.362500
0.258333
0.508333
0.708333
0.441667
0.733333
0.591667
0.437500
0.354167
0.233333
0.733333
0.329167
0.254167
0.329167
0.254167
0.250000
0.304167
0.620833
0.579167
0.575000
0.525000
0.650000
0.258333
0.320833
0.587500
0.583333
0.591667
0.583333
0.579167
0.583333
0.595833
0.583333
0.583333
0.587500
0.591667
0.587500
0.583333
0.587500
0.604167
0.587500
0.354167
0.237500
0.591667
0.420833
0.333333
0.325000
0.283333
0.425000
0.583333
0.595833
0.587500
0.579167
0.583333
0.595833
0.583333
0.579167
0.591667
0.595833
0.583333
0.612500
0.591667
0.591667
0.587500
0.587500
0.587500
0.583333
0.595833
0.587500
0.595833
0.579167
0.591667
0.587500
0.591667
0.579167
0.591667
0.587500
0.595833
0.591667
0.591667
0.591667
0.595833
0.591667
0.600000
0.591667
0.600000
0.604167
0.600000
0.591667
0.591667
0.583333
0.591667
0.608333
0.625000
0.604167
0.595833
0.600000
0.591667
0.595833
0.595833
0.595833
0.595833
0.591667
0.591667
0.600000
0.595833
0.583333
0.583333
0.591667
0.604167
0.595833
0.600000
0.608333
0.604167
0.595833
0.595833
0.600000
0.604167
0.591667
0.595833
0.600000
0.604167
0.600000
0.587500
0.595833
0.595833
0.595833
0.595833
0.583333
0.591667
0.595833
0.600000
0.600000
0.583333
0.591667
0.587500
0.595833
0.600000
0.591667
0.591667
0.595833
0.604167
0.595833
0.591667
0.587500
0.595833
0.600000
0.591667
0.591667
0.591667
0.600000
0.595833
0.587500
0.587500
0.591667
0.587500
0.591667
0.595833
0.591667
0.591667
0.587500
0.583333
0.591667
0.595833
0.587500
0.587500
0.591667
0.587500
0.591667
0.587500
0.587500
0.595833
0.591667
0.595833
0.587500
0.587500
0.595833
0.591667
0.591667
0.587500
0.591667
0.591667
0.595833
0.587500
0.591667
0.591667
0.595833
0.591667
0.587500
0.591667
0.595833
0.591667
0.537500
0.641667
0.591667
0.591667
0.591667
0.591667
0.587500
0.595833
0.583333
0.587500
0.595833
0.595833
0.600000
0.591667
0.591667
0.587500
0.595833
0.595833
0.587500
0.587500
0.587500
0.600000
0.591667
0.579167
0.245833
0.341667
0.595833
0.587500
0.587500
0.595833
0.591667
0.587500
0.591667
0.591667
0.591667
0.587500
0.587500
0.595833
0.587500
0.500000
0.250000
0.425000
0.583333
0.587500
0.587500
0.604167
0.591667
0.587500
0.583333
0.600000
0.591667
0.591667
0.591667
0.595833
0.595833
0.591667
0.583333
0.595833
0.595833
0.595833
0.595833
0.595833
0.600000
0.600000
0.591667
0.587500
0.591667
0.591667
0.591667
0.591667
0.591667
0.604167
0.595833
0.587500
0.587500
0.591667
0.595833
0.600000
0.579167
0.604167
0.587500
0.595833
0.600000
0.600000
0.595833
0.595833
0.604167
0.608333
0.591667
0.600000
0.595833
0.600000
0.595833
0.591667
0.591667
0.587500
0.604167
0.595833
0.591667
0.595833
0.600000
0.604167
0.591667
0.591667
0.595833
0.595833
0.604167
0.916667
0.341667
0.579167
0.258333
0.295833
0.720833
0.404167
0.829167
0.095833
0.404167
1.104167
0.600000
1.195833
0.587500
0.591667
0.362500
0.829167
0.595833
0.587500
0.591667
0.591667
0.600000
0.591667
0.587500
0.591667
0.604167
0.591667
0.591667
0.595833
0.600000
0.595833
0.591667
0.600000
0.595833
0.595833
0.595833
0.604167
0.608333
0.595833
0.591667
0.587500
0.583333
0.595833
0.583333
0.579167
0.612500
0.591667
0.583333
0.591667
0.583333
0.583333
0.587500
0.587500
0.583333
0.583333
0.587500
0.583333
0.575000
0.575000
0.583333
0.608333
0.591667
0.583333
0.583333
0.591667
0.583333
0.583333
0.587500
0.587500
0.587500
0.587500
0.583333
0.587500
0.570833
0.579167
0.608333
0.608333
0.591667
0.595833
0.595833
0.591667
0.545833
0.637500
0.595833
0.583333
0.570833
0.608333
0.604167
0.591667
0.595833
0.591667
0.595833
0.595833
0.595833
0.591667
0.608333
0.204167
0.383333
0.587500
0.275000
0.304167
0.500000
0.700000
0.308333
0.216667
0.204167
0.479167
0.587500
0.312500
0.291667
0.587500
0.595833
0.304167
0.287500
0.241667
0.541667
0.395833
0.304167
0.262500
0.341667
0.266667
