0.370833
0.333333
0.341667
0.337500
0.341667
0.337500
0.379167
0.370833
0.341667
0.370833
0.341667
0.412500
0.341667
0.329167
0.420833
0.445833
0.333333
0.445833
0.333333
0.316667
0.325000
0.329167
0.325000
0.329167
0.329167
0.337500
0.370833
0.333333
0.341667
0.350000
0.329167
0.333333
0.329167
0.337500
0.391667
0.366667
0.425000
0.462500
0.404167
0.329167
0.295833
0.308333
0.325000
0.354167
0.337500
0.320833
0.325000
0.366667
0.354167
0.329167
0.337500
0.329167
0.333333
0.391667
0.383333
0.337500
0.400000
0.379167
0.337500
0.391667
0.370833
0.333333
0.387500
0.362500
0.366667
0.350000
0.320833
0.295833
0.325000
0.358333
0.337500
0.416667
0.375000
0.333333
0.350000
0.354167
0.366667
0.350000
0.333333
0.337500
0.337500
0.320833
0.337500
0.350000
0.337500
0.375000
0.366667
0.350000
0.358333
0.337500
0.354167
0.370833
0.341667
0.337500
0.325000
0.408333
0.358333
0.333333
0.329167
0.345833
0.345833
0.358333
0.354167
0.325000
0.345833
0.325000
0.329167
0.341667
0.337500
0.329167
0.354167
0.429167
0.358333
0.333333
0.345833
0.345833
0.320833
0.329167
0.345833
0.395833
0.316667
0.362500
0.345833
0.341667
0.329167
0.320833
0.304167
0.408333
0.350000
0.337500
0.320833
0.316667
0.333333
0.329167
0.333333
0.329167
0.350000
0.337500
0.350000
0.354167
0.366667
0.412500
0.362500
0.345833
0.366667
0.333333
0.366667
0.350000
0.341667
0.379167
0.337500
0.325000
0.325000
0.350000
0.366667
0.337500
0.308333
0.279167
0.279167
0.312500
0.320833
0.320833
0.325000
0.391667
0.366667
0.333333
0.341667
0.308333
0.354167
0.362500
0.437500
0.350000
0.316667
0.308333
0.362500
0.379167
0.333333
0.304167
0.300000
0.320833
0.316667
0.329167
0.333333
0.350000
0.358333
0.341667
0.350000
0.350000
0.337500
0.387500
0.354167
0.337500
0.333333
0.325000
0.325000
0.325000
0.316667
0.325000
0.333333
0.345833
0.329167
0.354167
0.354167
0.333333
0.329167
0.329167
0.325000
0.362500
0.379167
0.562500
0.350000
0.383333
0.370833
0.333333
0.329167
0.333333
0.325000
0.333333
0.329167
0.308333
0.329167
0.358333
0.333333
0.320833
0.312500
0.379167
0.437500
0.391667
0.341667
0.333333
0.337500
0.325000
0.312500
0.329167
0.325000
0.329167
0.325000
0.337500
0.312500
0.333333
0.333333
0.341667
0.333333
0.316667
0.329167
0.362500
0.375000
0.333333
0.312500
0.383333
0.358333
0.333333
0.325000
0.320833
0.329167
0.429167
0.383333
0.420833
0.337500
0.337500
0.333333
0.316667
0.308333
0.304167
0.325000
0.325000
0.345833
0.308333
0.333333
0.345833
0.312500
0.300000
0.325000
0.429167
0.458333
0.529167
0.362500
0.416667
0.358333
0.341667
0.308333
0.287500
0.354167
0.333333
0.450000
0.345833
0.320833
0.358333
0.608333
0.366667
0.337500
0.300000
0.300000
0.345833
0.341667
0.333333
0.366667
0.400000
0.420833
0.387500
0.350000
0.379167
0.337500
0.320833
0.304167
0.304167
0.370833
0.341667
0.358333
0.354167
0.354167
0.341667
0.337500
0.341667
0.333333
0.312500
0.337500
0.341667
0.329167
0.320833
0.337500
0.425000
0.370833
0.329167
0.345833
0.341667
0.350000
0.354167
0.366667
0.358333
0.329167
0.316667
0.329167
0.320833
0.337500
0.354167
0.333333
0.375000
0.358333
0.320833
0.345833
0.395833
0.575000
0.366667
0.329167
0.329167
0.337500
0.320833
0.341667
0.345833
0.341667
0.383333
0.366667
0.337500
0.341667
0.354167
0.350000
0.316667
0.308333
0.345833
0.416667
0.354167
0.337500
0.345833
0.350000
0.475000
0.362500
0.333333
0.320833
0.337500
0.337500
0.333333
0.337500
0.333333
0.341667
0.337500
0.304167
0.341667
0.350000
0.333333
0.345833
0.337500
0.316667
0.304167
0.333333
0.366667
0.329167
0.379167
0.350000
0.441667
0.350000
0.308333
0.325000
0.358333
0.354167
0.325000
0.300000
0.312500
0.320833
0.370833
0.358333
0.333333
0.320833
0.312500
0.329167
0.362500
0.337500
0.333333
0.350000
0.325000
0.387500
0.441667
0.466667
0.383333
0.379167
0.425000
0.429167
0.354167
0.316667
0.295833
0.312500
0.329167
0.337500
0.362500
0.341667
0.333333
0.616667
0.379167
0.350000
0.320833
0.337500
0.562500
0.362500
0.337500
0.525000
0.400000
0.345833
0.320833
0.316667
0.345833
0.358333
0.466667
0.375000
0.495833
0.400000
0.350000
0.316667
0.341667
0.341667
0.325000
0.329167
0.366667
0.354167
0.320833
0.354167
0.366667
0.466667
0.337500
0.329167
0.329167
0.391667
0.412500
0.350000
0.454167
0.462500
0.337500
0.308333
0.320833
0.325000
0.329167
0.362500
0.358333
0.329167
0.312500
0.337500
0.333333
0.391667
0.412500
0.362500
0.350000
0.333333
0.312500
0.325000
0.320833
0.312500
0.312500
0.337500
0.333333
0.333333
0.350000
0.337500
0.333333
0.312500
0.316667
0.337500
0.358333
0.316667
0.295833
0.337500
0.391667
0.362500
0.350000
0.358333
0.370833
0.337500
0.320833
0.312500
0.325000
0.362500
0.379167
0.337500
0.333333
0.308333
0.345833
0.350000
0.329167
0.329167
0.354167
0.370833
0.337500
0.320833
0.304167
0.333333
0.337500
0.337500
0.337500
0.320833
0.287500
0.370833
0.354167
0.358333
0.325000
0.395833
0.358333
0.370833
0.366667
0.329167
0.329167
0.316667
0.350000
0.391667
0.341667
0.362500
0.325000
0.325000
0.354167
0.354167
0.345833
0.337500
0.308333
0.325000
0.350000
0.304167
0.316667
0.308333
0.333333
0.379167
0.350000
0.316667
0.300000
0.312500
0.337500
0.312500
0.308333
0.300000
0.350000
0.358333
0.329167
0.333333
0.325000
0.329167
0.337500
0.325000
0.329167
0.387500
0.329167
0.366667
0.345833
0.329167
0.358333
0.450000
0.370833
0.341667
0.329167
0.325000
0.312500
0.308333
0.345833
0.333333
0.329167
0.458333
0.437500
0.366667
0.520833
0.362500
0.329167
0.312500
0.350000
0.333333
0.316667
0.337500
0.341667
0.316667
0.454167
0.387500
0.358333
0.325000
0.320833
0.300000
0.312500
0.333333
0.412500
0.370833
0.341667
0.341667
0.325000
0.316667
0.337500
0.341667
0.333333
0.337500
0.333333
0.333333
0.350000
0.341667
0.345833
0.450000
0.375000
0.337500
0.395833
0.325000
0.350000
0.366667
0.333333
0.383333
0.362500
0.362500
0.329167
0.312500
0.350000
0.350000
0.329167
0.391667
0.366667
0.325000
0.408333
0.345833
0.383333
0.475000
0.666667
0.316667
0.345833
0.354167
0.341667
0.300000
0.320833
0.350000
0.333333
0.316667
0.325000
0.350000
0.358333
0.337500
0.350000
0.329167
0.341667
0.354167
0.554167
0.370833
0.337500
0.354167
0.325000
0.320833
0.325000
0.329167
0.329167
0.329167
0.337500
0.320833
0.387500
0.370833
0.358333
0.358333
0.354167
0.333333
0.295833
0.291667
0.333333
0.325000
0.325000
0.329167
0.333333
0.337500
0.329167
0.316667
0.316667
0.341667
0.316667
0.291667
0.350000
0.433333
0.387500
0.325000
0.354167
0.308333
0.337500
0.350000
0.350000
0.333333
0.329167
0.337500
0.383333
0.387500
0.395833
0.395833
0.391667
0.354167
0.337500
0.320833
0.370833
0.337500
0.312500
0.358333
0.383333
0.337500
0.341667
0.337500
0.358333
0.337500
0.333333
0.350000
0.316667
0.354167
0.337500
0.325000
0.341667
0.345833
0.337500
0.562500
0.450000
0.362500
0.312500
0.341667
0.387500
0.462500
0.341667
0.291667
0.300000
0.341667
0.337500
0.337500
0.341667
0.316667
0.341667
0.333333
0.325000
0.316667
0.333333
0.320833
0.291667
0.308333
0.391667
0.333333
0.358333
0.383333
0.345833
0.379167
0.329167
0.391667
0.366667
0.350000
0.320833
0.329167
0.341667
0.362500
0.425000
0.391667
0.500000
0.362500
0.325000
0.329167
0.300000
0.320833
0.379167
0.316667
0.312500
0.337500
0.329167
0.354167
0.329167
0.350000
0.345833
0.320833
0.379167
0.345833
0.362500
0.362500
0.345833
0.337500
0.325000
0.316667
0.345833
0.387500
0.312500
0.325000
0.320833
0.316667
0.333333
0.329167
0.308333
0.329167
0.345833
0.316667
0.308333
0.358333
0.383333
0.354167
0.383333
0.337500
0.345833
0.337500
0.333333
0.337500
0.337500
0.362500
0.350000
0.337500
0.350000
0.379167
0.325000
0.341667
0.320833
0.383333
0.408333
0.350000
0.337500
0.312500
0.304167
0.337500
0.350000
0.354167
0.341667
0.337500
0.354167
0.375000
0.375000
0.379167
0.379167
0.458333
0.562500
0.333333
0.279167
0.316667
0.329167
0.350000
0.383333
0.345833
0.354167
0.304167
0.320833
0.350000
0.375000
0.333333
0.366667
0.337500
0.333333
0.358333
0.362500
0.425000
0.337500
0.320833
0.325000
0.312500
0.300000
0.333333
0.320833
0.337500
0.345833
0.358333
0.341667
0.350000
0.400000
0.316667
0.370833
0.466667
0.354167
0.337500
0.333333
0.345833
0.350000
0.341667
0.362500
0.337500
0.341667
0.354167
0.333333
0.304167
0.312500
0.329167
0.316667
0.337500
0.333333
0.350000
0.341667
0.333333
0.341667
0.341667
0.320833
0.320833
0.304167
0.329167
0.370833
0.370833
0.366667
0.312500
0.308333
0.341667
0.325000
0.312500
0.362500
0.350000
0.495833
0.416667
0.479167
0.379167
0.350000
0.329167
0.333333
0.320833
0.391667
0.362500
0.566667
0.370833
0.329167
0.341667
0.350000
0.358333
0.379167
0.333333
0.333333
0.333333
0.358333
0.308333
0.354167
0.445833
0.383333
0.416667
0.320833
0.300000
0.350000
0.350000
0.329167
0.366667
0.629167
0.375000
0.333333
0.325000
0.375000
0.420833
0.354167
0.329167
0.312500
0.383333
0.391667
0.345833
0.358333
0.341667
0.354167
0.362500
0.391667
0.337500
0.304167
0.316667
0.316667
0.329167
0.337500
0.395833
0.404167
0.345833
0.320833
0.304167
0.337500
0.362500
0.358333
0.350000
0.329167
0.383333
0.362500
0.408333
0.354167
0.341667
0.325000
0.458333
0.350000
0.529167
0.400000
0.345833
0.345833
0.316667
0.308333
0.500000
0.354167
0.329167
0.325000
0.345833
1.983333
0.979167
1.525000
0.908333
0.920833
0.870833
0.829167
0.837500
1.225000
1.025000
0.866667
0.800000
0.800000
0.791667
0.783333
0.775000
1.204167
0.979167
0.850000
1.262500
0.958333
0.879167
0.862500
0.816667
0.925000
0.804167
0.716667
0.837500
0.762500
0.775000
0.770833
0.775000
0.779167
0.783333
0.779167
0.783333
0.787500
0.783333
0.787500
0.791667
0.791667
0.791667
0.804167
0.808333
0.825000
1.025000
0.970833
0.954167
0.920833
0.925000
0.895833
0.870833
0.887500
0.883333
0.870833
0.841667
0.470833
0.541667
0.604167
0.558333
0.700000
0.525000
1.437500
0.954167
0.470833
1.275000
0.716667
0.541667
0.391667
0.333333
0.533333
0.262500
1.108333
0.737500
1.033333
0.704167
0.475000
0.391667
0.575000
0.608333
0.654167
0.675000
0.670833
0.645833
0.650000
0.658333
0.641667
0.645833
0.991667
1.358333
0.733333
1.100000
0.458333
1.350000
0.937500
0.450000
1.308333
1.737500
0.791667
0.650000
0.595833
0.620833
0.662500
0.650000
0.812500
0.625000
0.383333
0.533333
0.287500
0.612500
0.570833
0.387500
0.341667
0.383333
0.350000
0.333333
0.337500
0.329167
0.333333
0.325000
0.350000
0.450000
0.350000
0.308333
0.329167
0.333333
0.316667
0.325000
0.341667
0.370833
0.354167
0.350000
0.379167
0.354167
0.354167
0.320833
0.337500
0.383333
0.333333
0.312500
0.304167
0.320833
0.358333
0.337500
0.354167
0.345833
0.325000
0.325000
0.350000
0.350000
0.345833
0.370833
0.333333
0.350000
0.350000
0.320833
0.333333
0.354167
0.354167
0.354167
0.366667
0.345833
0.350000
0.341667
0.366667
0.337500
0.316667
0.316667
0.337500
0.345833
0.329167
0.333333
0.333333
0.345833
0.341667
0.341667
0.341667
0.325000
0.345833
0.337500
0.341667
0.520833
0.366667
0.341667
0.345833
0.333333
0.337500
0.341667
0.350000
0.337500
0.358333
0.337500
0.325000
0.329167
0.316667
0.329167
0.341667
0.337500
0.354167
0.416667
0.345833
0.337500
0.329167
0.350000
0.341667
0.362500
0.341667
0.341667
0.337500
0.333333
0.333333
0.312500
0.329167
0.400000
0.433333
0.370833
0.325000
0.304167
0.333333
0.370833
0.379167
0.575000
0.375000
0.337500
0.337500
0.341667
0.337500
0.333333
0.333333
0.354167
0.345833
0.345833
0.345833
0.341667
0.333333
0.329167
0.316667
0.345833
0.366667
0.333333
0.337500
0.379167
0.366667
0.395833
0.375000
0.341667
0.341667
0.341667
0.329167
0.333333
0.333333
0.341667
0.329167
0.333333
0.337500
0.337500
0.329167
0.333333
0.341667
0.329167
0.329167
0.337500
0.345833
0.345833
0.341667
0.337500
0.341667
0.337500
0.337500
0.350000
0.341667
0.420833
0.450000
0.362500
0.337500
0.350000
0.333333
0.337500
0.333333
0.325000
0.329167
0.329167
0.333333
0.320833
0.341667
0.345833
0.337500
0.341667
0.337500
0.337500
0.337500
0.345833
0.341667
0.345833
0.341667
0.337500
0.341667
0.350000
0.333333
0.362500
0.345833
0.337500
0.362500
0.366667
0.387500
0.329167
0.329167
0.370833
0.462500
0.408333
0.354167
0.304167
0.375000
0.387500
0.329167
0.329167
0.341667
0.337500
0.333333
0.379167
0.358333
0.370833
0.337500
0.320833
0.329167
0.320833
0.358333
0.383333
0.337500
0.337500
0.345833
0.350000
0.354167
0.337500
0.329167
0.354167
0.333333
0.345833
0.325000
0.333333
0.329167
0.337500
0.329167
0.350000
0.350000
0.345833
0.354167
0.358333
0.345833
0.433333
0.395833
0.366667
0.312500
0.320833
0.320833
0.333333
0.408333
0.379167
0.333333
0.387500
0.383333
0.337500
0.325000
0.329167
0.312500
0.316667
0.308333
0.375000
0.383333
0.337500
0.320833
0.337500
0.329167
0.337500
0.333333
0.333333
0.354167
0.383333
0.345833
0.412500
0.358333
0.337500
0.345833
0.345833
0.350000
0.437500
0.412500
0.375000
0.366667
0.345833
0.312500
0.295833
0.333333
0.341667
0.320833
0.337500
0.333333
0.358333
0.333333
0.350000
0.312500
0.300000
0.308333
0.320833
0.304167
0.316667
0.320833
0.283333
0.345833
0.320833
0.300000
0.475000
0.329167
0.316667
0.333333
0.316667
0.312500
0.375000
0.354167
0.337500
0.329167
0.341667
0.379167
0.345833
0.345833
0.350000
0.341667
0.404167
0.362500
0.325000
0.337500
0.350000
0.345833
0.345833
0.345833
0.425000
0.358333
0.358333
0.354167
0.329167
0.362500
0.350000
0.329167
0.325000
0.366667
0.350000
0.562500
0.375000
0.337500
0.312500
0.325000
0.329167
0.387500
0.362500
0.437500
0.400000
0.520833
0.391667
0.350000
0.295833
0.350000
0.516667
0.412500
0.366667
0.329167
0.341667
0.333333
0.341667
0.433333
0.320833
0.325000
0.345833
0.325000
0.425000
0.400000
0.354167
0.333333
0.312500
0.337500
0.325000
0.287500
0.316667
0.333333
0.366667
0.429167
0.458333
0.395833
0.350000
0.325000
0.316667
0.320833
0.366667
0.379167
0.354167
0.375000
0.375000
0.345833
0.337500
0.529167
0.654167
0.387500
0.475000
0.333333
0.350000
0.358333
0.345833
0.308333
0.312500
0.358333
0.320833
0.312500
0.454167
0.341667
0.316667
0.337500
0.354167
0.366667
0.354167
0.366667
0.337500
0.333333
0.341667
0.312500
0.325000
0.316667
0.350000
0.358333
0.425000
0.341667
0.345833
0.333333
0.333333
0.341667
0.362500
0.379167
0.350000
0.341667
0.325000
0.341667
0.337500
0.370833
0.316667
0.295833
0.300000
0.375000
0.354167
0.337500
0.308333
0.366667
0.354167
0.370833
0.341667
0.345833
0.329167
0.320833
0.379167
0.400000
0.350000
0.320833
0.420833
0.391667
0.345833
0.345833
0.333333
0.379167
0.370833
0.375000
0.350000
0.337500
0.345833
0.337500
0.358333
0.337500
0.345833
0.337500
0.345833
0.350000
0.329167
0.316667
0.320833
0.354167
0.354167
0.341667
0.366667
0.350000
0.341667
0.329167
0.358333
0.350000
0.300000
0.291667
0.345833
0.300000
0.337500
0.375000
0.350000
0.358333
0.337500
0.358333
0.345833
0.404167
0.329167
0.320833
0.341667
0.325000
0.387500
0.354167
0.333333
0.350000
0.329167
0.325000
0.370833
0.366667
0.333333
0.304167
0.312500
0.329167
0.550000
0.458333
0.437500
0.341667
0.341667
0.341667
0.308333
0.300000
0.345833
0.337500
0.320833
0.329167
0.325000
