0.587500
0.579167
0.579167
0.583333
0.579167
0.575000
0.570833
0.579167
0.637500
0.241667
0.262500
0.570833
0.575000
0.725000
0.333333
0.412500
0.645833
0.754167
0.579167
0.391667
0.466667
0.370833
0.504167
0.370833
0.200000
0.283333
0.300000
0.345833
0.375000
0.245833
0.308333
0.304167
0.737500
0.587500
0.575000
0.579167
0.579167
0.583333
0.579167
0.579167
0.579167
0.433333
0.733333
0.579167
0.583333
0.583333
0.587500
0.579167
0.579167
0.579167
0.587500
0.579167
0.579167
0.583333
0.566667
0.600000
0.579167
0.583333
0.583333
0.266667
0.900000
0.591667
0.583333
0.583333
0.579167
0.587500
0.587500
0.579167
0.583333
0.587500
0.583333
0.620833
0.216667
0.287500
0.479167
0.525000
0.625000
0.266667
0.508333
0.225000
0.383333
0.279167
0.341667
0.225000
0.370833
0.495833
0.441667
0.366667
0.220833
0.395833
0.483333
0.495833
0.458333
0.500000
0.591667
0.737500
0.220833
0.304167
0.512500
0.395833
0.495833
0.454167
0.354167
0.358333
0.170833
0.241667
0.225000
0.312500
0.333333
0.233333
0.470833
0.716667
0.395833
0.791667
0.587500
0.733333
0.504167
0.537500
0.587500
0.445833
0.516667
0.429167
0.283333
0.583333
0.583333
0.516667
0.270833
0.366667
0.379167
0.270833
0.508333
0.195833
0.391667
0.700000
1.033333
0.150000
0.420833
0.362500
0.212500
0.520833
0.258333
0.691667
0.237500
0.812500
0.283333
0.695833
0.533333
0.654167
0.516667
0.762500
0.812500
0.254167
0.587500
1.170833
0.445833
0.416667
0.479167
1.012500
1.279167
0.483333
0.529167
0.983333
0.220833
0.941667
1.083333
0.312500
1.166667
0.775000
0.479167
0.491667
1.041667
0.700000
0.579167
0.575000
0.262500
0.900000
0.575000
0.579167
0.575000
0.583333
0.587500
0.691667
0.462500
0.604167
0.554167
0.579167
0.579167
0.570833
0.579167
0.587500
0.579167
0.583333
0.587500
0.595833
0.587500
0.587500
0.600000
0.587500
0.591667
0.587500
0.591667
0.583333
0.583333
0.587500
0.587500
0.583333
0.579167
0.579167
0.587500
0.587500
0.583333
0.583333
0.254167
0.925000
0.587500
0.587500
0.587500
0.587500
0.595833
0.587500
0.591667
0.587500
0.595833
0.595833
0.591667
0.587500
0.587500
0.591667
0.591667
0.583333
0.587500
0.591667
0.591667
0.583333
0.587500
0.245833
0.933333
0.583333
0.583333
0.583333
0.591667
0.579167
0.583333
0.583333
0.587500
0.587500
0.579167
0.579167
0.587500
0.583333
0.583333
0.579167
0.583333
0.587500
0.583333
0.579167
0.579167
0.579167
0.587500
0.583333
0.579167
0.583333
0.587500
0.575000
0.579167
0.579167
0.591667
0.579167
0.583333
0.583333
0.587500
0.587500
0.583333
0.583333
0.587500
0.512500
0.654167
0.583333
0.591667
0.475000
0.683333
0.587500
0.587500
0.579167
0.583333
0.579167
0.591667
0.583333
0.583333
0.579167
0.520833
0.645833
0.587500
0.787500
0.391667
0.579167
0.579167
0.583333
0.587500
0.587500
0.583333
0.583333
0.591667
0.583333
0.579167
0.375000
0.212500
0.587500
0.587500
0.583333
0.583333
0.587500
0.408333
0.541667
0.225000
0.579167
0.462500
0.370833
0.925000
0.583333
0.583333
0.587500
0.591667
0.533333
0.641667
0.583333
0.595833
0.595833
0.579167
0.591667
0.583333
0.587500
0.579167
0.583333
0.583333
0.579167
0.575000
0.579167
0.583333
0.579167
0.570833
0.583333
0.583333
0.575000
0.579167
0.583333
0.583333
0.579167
0.575000
0.583333
0.587500
0.579167
0.583333
0.566667
0.004167
0.608333
0.362500
0.791667
0.583333
0.583333
0.575000
0.587500
0.583333
0.579167
0.579167
0.587500
0.587500
0.583333
0.504167
0.666667
0.583333
0.579167
0.579167
0.579167
0.583333
0.583333
0.579167
0.575000
0.579167
0.533333
0.295833
0.283333
0.633333
0.579167
0.587500
0.579167
0.579167
0.583333
0.583333
0.579167
0.579167
0.583333
0.279167
0.300000
0.300000
0.283333
0.575000
0.587500
0.583333
0.579167
0.579167
0.587500
0.366667
0.220833
0.575000
0.583333
0.587500
0.579167
0.579167
0.587500
0.583333
0.575000
0.570833
0.583333
0.583333
0.575000
0.579167
0.583333
0.579167
0.579167
0.583333
0.583333
0.579167
0.575000
0.583333
0.587500
0.579167
0.583333
0.587500
0.583333
0.579167
0.579167
0.583333
0.583333
0.245833
0.329167
0.570833
0.458333
0.712500
0.687500
0.470833
0.583333
0.587500
0.583333
0.766667
0.300000
0.691667
0.591667
0.587500
0.587500
0.587500
0.416667
0.770833
0.583333
0.587500
0.583333
0.720833
0.454167
0.362500
0.225000
0.587500
0.412500
0.420833
0.920833
0.583333
0.587500
0.583333
0.583333
0.587500
0.591667
0.587500
0.562500
0.608333
0.583333
0.587500
0.587500
0.587500
0.262500
0.325000
0.587500
0.591667
0.587500
0.583333
0.587500
0.587500
0.583333
0.583333
0.591667
0.325000
0.262500
0.583333
0.429167
0.733333
0.583333
0.579167
0.583333
0.220833
0.366667
0.579167
0.579167
0.587500
0.579167
0.579167
0.379167
0.200000
0.583333
0.579167
0.579167
0.579167
0.583333
0.379167
0.200000
0.579167
0.579167
0.587500
0.587500
0.583333
0.583333
0.587500
0.583333
0.583333
0.583333
0.591667
0.591667
0.583333
0.583333
0.587500
0.587500
0.583333
0.583333
0.587500
0.587500
0.579167
0.583333
0.587500
0.587500
0.583333
0.579167
0.583333
0.587500
0.579167
0.575000
0.583333
0.583333
0.583333
0.575000
0.575000
0.583333
0.583333
0.575000
0.579167
0.579167
0.583333
0.579167
0.579167
0.579167
0.587500
0.579167
0.579167
0.579167
0.587500
0.579167
0.579167
0.579167
0.587500
0.587500
0.587500
0.583333
0.712500
0.475000
0.587500
0.591667
0.587500
0.595833
0.591667
0.583333
0.583333
0.591667
0.587500
0.583333
0.579167
0.583333
0.587500
0.587500
0.583333
0.583333
0.587500
0.587500
0.587500
0.579167
0.583333
0.587500
0.587500
0.583333
0.579167
0.583333
0.591667
0.579167
0.579167
0.687500
0.483333
0.575000
0.370833
0.208333
0.225000
0.350000
0.583333
0.587500
0.579167
0.579167
0.587500
0.583333
0.583333
0.579167
0.583333
0.587500
0.583333
0.579167
0.579167
0.591667
0.579167
0.579167
0.583333
0.587500
0.587500
0.583333
0.583333
0.583333
0.587500
0.579167
0.583333
0.579167
0.587500
0.583333
0.579167
0.579167
0.237500
0.262500
0.187500
0.479167
0.479167
0.687500
0.583333
0.579167
0.583333
0.587500
0.583333
0.583333
0.591667
0.591667
0.587500
0.354167
0.408333
0.479167
0.200000
0.433333
0.654167
0.254167
0.450000
0.625000
0.433333
0.408333
0.587500
0.579167
0.583333
0.591667
0.587500
0.579167
0.387500
0.195833
0.583333
0.587500
0.562500
0.125000
0.887500
0.187500
0.450000
0.420833
0.295833
0.225000
0.354167
0.583333
0.591667
0.587500
0.579167
0.295833
0.366667
0.512500
0.279167
0.300000
0.237500
0.650000
0.270833
0.425000
0.275000
0.216667
0.250000
0.579167
0.575000
0.579167
0.583333
0.583333
0.575000
0.316667
0.254167
0.545833
0.625000
0.575000
0.575000
0.345833
0.604167
0.779167
0.208333
0.433333
0.204167
0.308333
0.233333
0.350000
0.766667
0.379167
0.666667
0.504167
0.229167
0.345833
0.658333
0.050000
0.383333
0.620833
0.137500
0.579167
0.370833
0.345833
0.516667
0.237500
0.341667
1.029167
0.541667
0.629167
0.579167
0.641667
0.508333
0.237500
0.454167
0.491667
0.550000
0.275000
0.466667
0.416667
0.691667
0.345833
0.441667
0.270833
0.808333
0.475000
0.550000
0.462500
0.862500
0.641667
0.370833
0.266667
0.216667
0.504167
0.366667
0.266667
0.258333
0.587500
0.720833
0.295833
0.500000
0.300000
0.795833
0.620833
0.816667
1.470833
1.154167
1.154167
1.720833
0.575000
0.745833
0.350000
0.220833
0.991667
0.579167
0.579167
0.579167
0.583333
0.579167
0.579167
0.579167
0.583333
0.583333
0.579167
0.575000
0.579167
0.579167
0.575000
0.575000
0.575000
0.583333
0.575000
0.575000
0.575000
0.583333
0.575000
0.575000
0.675000
0.266667
0.491667
0.437500
0.558333
0.337500
0.445833
0.900000
0.608333
0.683333
0.308333
0.912500
0.337500
0.416667
0.366667
0.541667
0.295833
0.895833
0.483333
0.870833
0.208333
0.325000
0.600000
0.470833
0.283333
0.229167
1.200000
0.395833
1.341667
1.012500
1.170833
1.758333
0.579167
0.583333
0.583333
1.179167
0.583333
0.587500
0.708333
0.466667
0.329167
0.337500
0.229167
0.266667
0.583333
0.587500
0.583333
0.579167
0.579167
0.587500
0.587500
0.583333
0.583333
0.583333
0.591667
0.579167
0.583333
0.579167
0.587500
0.587500
0.583333
0.583333
0.587500
0.587500
0.583333
0.583333
0.583333
0.587500
0.583333
0.579167
0.583333
0.583333
0.579167
0.575000
0.245833
0.333333
0.579167
0.570833
0.575000
0.575000
0.579167
0.575000
0.570833
0.575000
0.579167
0.570833
0.570833
0.575000
0.537500
0.391667
0.225000
0.458333
0.508333
0.758333
0.575000
0.575000
0.583333
0.579167
0.579167
0.575000
0.583333
0.575000
0.333333
0.383333
0.304167
0.691667
0.279167
0.329167
0.254167
0.862500
0.291667
0.912500
0.579167
0.579167
0.879167
0.862500
0.575000
0.583333
0.579167
0.575000
0.575000
0.225000
1.450000
0.508333
0.145833
0.291667
0.337500
0.383333
0.362500
0.358333
0.383333
0.783333
0.583333
0.583333
0.591667
0.587500
0.587500
0.583333
0.245833
0.341667
0.591667
0.583333
0.583333
0.587500
0.591667
0.479167
0.691667
0.591667
0.591667
0.587500
0.762500
0.312500
0.700000
0.591667
0.420833
0.816667
0.620833
0.500000
0.583333
0.591667
0.587500
0.583333
0.587500
0.587500
0.583333
0.579167
0.679167
0.600000
0.475000
0.579167
0.579167
0.529167
0.504167
0.720833
0.400000
0.175000
0.745833
0.416667
0.587500
0.575000
0.575000
0.587500
0.587500
0.350000
0.233333
0.575000
0.575000
0.591667
0.266667
0.320833
0.562500
0.270833
0.304167
0.258333
0.325000
0.575000
0.191667
0.375000
0.575000
0.575000
0.575000
0.570833
0.608333
0.629167
0.600000
0.587500
0.579167
0.579167
0.587500
0.579167
0.579167
0.570833
0.583333
0.575000
0.587500
0.579167
0.579167
0.575000
0.587500
0.579167
0.579167
0.575000
0.583333
0.583333
0.570833
0.575000
0.579167
0.583333
0.570833
0.570833
0.579167
0.583333
0.570833
0.575000
0.575000
0.583333
0.525000
0.362500
0.262500
0.254167
0.545833
0.937500
0.579167
0.583333
0.579167
0.575000
0.575000
0.583333
0.583333
0.575000
0.575000
0.579167
0.579167
0.583333
0.579167
0.579167
0.575000
0.587500
0.579167
0.579167
0.583333
0.583333
0.579167
0.575000
0.583333
0.583333
0.579167
0.579167
0.583333
0.587500
0.579167
0.579167
0.587500
0.583333
0.579167
0.583333
0.670833
0.500000
0.575000
0.583333
0.587500
0.587500
0.579167
0.579167
0.587500
0.229167
0.358333
0.579167
0.533333
0.637500
0.583333
0.583333
0.587500
0.583333
0.583333
0.579167
0.416667
0.166667
0.450000
0.720833
0.583333
0.587500
0.591667
0.583333
0.587500
0.583333
0.595833
0.583333
0.579167
0.583333
0.583333
0.583333
0.583333
0.579167
0.587500
0.583333
0.583333
0.579167
0.591667
0.579167
0.583333
0.579167
0.587500
0.579167
0.575000
0.583333
0.583333
0.575000
0.570833
0.575000
0.583333
0.570833
0.570833
0.608333
0.616667
0.620833
0.579167
