0.341667
0.341667
0.333333
0.337500
0.391667
0.350000
0.300000
0.291667
0.333333
0.329167
0.387500
0.375000
0.333333
0.337500
0.333333
0.350000
0.333333
0.350000
0.375000
0.341667
0.333333
0.325000
0.337500
0.329167
0.370833
0.358333
0.337500
0.341667
0.225000
0.408333
0.333333
0.316667
0.337500
0.337500
0.341667
0.320833
0.320833
0.220833
0.420833
0.416667
0.362500
0.325000
0.295833
0.279167
0.316667
0.337500
1.666667
1.008333
0.879167
0.837500
0.808333
0.908333
0.983333
1.054167
0.862500
0.837500
0.741667
0.725000
1.404167
0.862500
0.795833
1.270833
0.904167
0.837500
0.845833
0.800000
0.729167
0.708333
0.783333
0.745833
0.745833
0.745833
0.758333
0.812500
1.229167
0.575000
1.133333
0.566667
1.133333
1.695833
0.866667
0.475000
1.208333
0.858333
0.470833
1.212500
0.862500
0.470833
1.212500
0.554167
0.550000
0.483333
0.383333
1.275000
0.579167
0.491667
0.858333
0.608333
0.545833
0.250000
0.350000
0.358333
0.325000
1.175000
0.612500
0.483333
0.566667
0.387500
0.616667
0.500000
0.600000
0.379167
0.316667
0.325000
0.341667
0.325000
0.316667
0.354167
0.354167
0.375000
0.337500
0.320833
0.325000
0.325000
0.337500
0.337500
0.333333
0.320833
0.337500
0.333333
0.337500
0.354167
0.345833
0.333333
0.337500
0.345833
0.333333
0.337500
0.333333
0.329167
0.504167
0.262500
0.333333
0.308333
0.300000
0.304167
0.329167
0.316667
0.304167
0.316667
0.345833
0.370833
0.341667
0.316667
0.320833
0.312500
0.333333
0.320833
0.491667
0.345833
0.279167
0.275000
0.583333
1.425000
1.045833
0.958333
0.941667
0.875000
0.854167
0.825000
0.745833
0.745833
1.283333
0.437500
1.295833
0.445833
1.258333
0.737500
0.800000
0.629167
0.650000
0.650000
0.595833
0.270833
0.558333
0.616667
0.637500
0.670833
0.566667
0.633333
0.733333
0.570833
0.479167
0.483333
0.345833
0.287500
0.295833
0.345833
0.358333
0.350000
0.341667
0.341667
0.312500
0.308333
0.308333
0.345833
0.366667
0.329167
0.308333
0.337500
0.329167
0.354167
0.320833
0.350000
0.350000
0.350000
0.383333
0.383333
0.337500
0.308333
0.304167
0.329167
0.354167
0.300000
0.350000
0.341667
0.337500
0.345833
0.379167
0.362500
0.379167
0.575000
0.366667
0.312500
0.287500
0.337500
0.320833
1.154167
0.337500
1.420833
0.437500
1.366667
0.741667
0.829167
0.391667
0.537500
0.387500
0.575000
0.725000
0.525000
0.608333
0.258333
0.308333
0.320833
0.316667
0.300000
0.325000
0.312500
0.300000
0.333333
0.470833
0.358333
0.337500
0.337500
0.312500
0.300000
0.358333
0.345833
0.316667
0.295833
0.300000
0.337500
0.362500
0.325000
0.304167
0.354167
0.320833
0.312500
0.358333
0.320833
0.291667
0.300000
0.316667
0.337500
0.362500
0.362500
0.512500
0.358333
0.350000
0.345833
0.329167
0.333333
0.308333
0.404167
0.358333
0.333333
0.333333
0.312500
0.325000
0.350000
0.395833
0.366667
0.337500
0.345833
0.366667
0.591667
0.350000
0.354167
0.329167
0.370833
0.337500
0.350000
0.370833
0.691667
0.266667
0.329167
0.320833
0.312500
0.354167
0.333333
0.325000
0.329167
0.341667
0.337500
0.341667
0.337500
0.295833
0.295833
0.387500
0.366667
0.316667
0.300000
0.325000
0.341667
0.383333
0.337500
0.308333
0.308333
0.329167
0.337500
0.325000
0.329167
0.316667
0.320833
0.320833
0.320833
0.345833
0.341667
0.329167
0.337500
0.354167
0.354167
0.337500
0.325000
0.325000
0.333333
0.345833
0.337500
0.333333
0.333333
0.320833
0.329167
0.320833
0.304167
0.329167
0.304167
0.287500
0.345833
0.337500
0.350000
0.358333
0.366667
0.354167
0.333333
0.312500
0.312500
0.333333
0.341667
0.341667
0.345833
0.579167
0.350000
0.300000
0.312500
0.329167
0.408333
0.362500
0.587500
0.629167
0.308333
0.400000
0.341667
0.325000
0.329167
0.329167
0.316667
0.320833
0.329167
0.333333
0.325000
0.329167
0.337500
0.333333
0.329167
0.329167
0.329167
0.325000
0.325000
0.358333
0.379167
0.333333
0.333333
0.333333
0.354167
0.350000
0.329167
0.337500
0.341667
0.337500
0.329167
0.358333
0.370833
0.358333
0.545833
0.362500
0.329167
0.333333
0.325000
0.337500
0.337500
0.408333
0.400000
0.337500
0.412500
0.645833
0.241667
0.325000
0.354167
0.350000
0.333333
0.329167
0.320833
0.358333
0.387500
0.341667
0.333333
0.325000
0.337500
0.320833
0.329167
0.345833
0.533333
0.362500
0.354167
0.325000
0.529167
0.354167
0.308333
0.341667
0.320833
0.320833
0.395833
0.345833
0.312500
0.320833
0.320833
0.316667
0.329167
0.329167
0.329167
0.325000
0.329167
0.320833
0.341667
0.383333
0.354167
0.308333
0.275000
0.287500
0.404167
0.375000
0.333333
0.325000
0.325000
0.341667
0.341667
0.350000
0.337500
0.320833
0.325000
0.337500
0.433333
0.433333
0.433333
0.433333
0.350000
0.329167
0.295833
0.295833
0.329167
0.387500
0.333333
0.304167
0.345833
0.387500
0.341667
0.337500
0.325000
0.354167
0.337500
0.325000
0.320833
0.325000
0.362500
0.387500
0.337500
0.333333
0.308333
0.316667
0.420833
0.525000
0.383333
0.375000
0.387500
0.412500
0.383333
0.333333
0.308333
0.291667
0.291667
0.312500
0.345833
0.312500
0.379167
0.391667
0.316667
0.295833
0.329167
0.325000
0.316667
0.325000
0.325000
0.320833
0.312500
0.308333
0.325000
0.329167
0.325000
0.337500
0.341667
0.395833
0.429167
0.391667
0.345833
0.229167
0.400000
0.333333
0.379167
0.366667
0.620833
0.300000
0.358333
0.391667
0.320833
1.316667
1.029167
1.212500
0.850000
0.862500
0.929167
0.762500
0.745833
0.929167
1.220833
0.845833
0.933333
0.641667
0.725000
1.354167
0.725000
0.716667
1.216667
0.845833
0.708333
1.241667
0.833333
0.708333
0.745833
1.237500
0.829167
0.712500
0.720833
0.729167
1.225000
0.804167
0.745833
0.712500
0.708333
0.791667
1.229167
1.683333
1.658333
1.654167
0.850000
0.479167
1.137500
0.841667
0.475000
1.175000
0.733333
0.804167
0.541667
0.383333
0.575000
0.583333
0.545833
0.575000
0.587500
0.700000
0.650000
0.629167
0.645833
0.708333
0.645833
0.620833
0.679167
0.675000
0.658333
0.658333
0.654167
0.658333
0.658333
0.633333
0.683333
1.770833
0.445833
1.258333
0.745833
0.712500
0.654167
0.641667
0.675000
0.391667
0.329167
0.337500
0.337500
0.320833
0.333333
0.333333
0.345833
0.337500
0.458333
0.337500
0.287500
0.291667
1.195833
0.437500
1.429167
0.741667
0.645833
0.737500
0.645833
0.641667
0.900000
0.416667
0.337500
0.320833
0.337500
0.362500
0.341667
0.341667
0.404167
0.345833
0.329167
0.366667
0.337500
0.308333
0.300000
0.345833
0.341667
0.329167
0.233333
0.412500
0.329167
0.329167
0.333333
0.325000
0.350000
0.333333
0.379167
0.416667
0.345833
0.316667
0.312500
0.325000
0.320833
0.308333
0.304167
0.241667
0.375000
0.295833
0.558333
0.245833
0.333333
0.333333
0.325000
0.329167
0.329167
0.320833
0.325000
0.304167
0.325000
0.379167
0.329167
0.391667
0.379167
0.366667
0.558333
0.362500
0.325000
0.354167
0.354167
0.333333
0.337500
0.329167
0.325000
0.308333
0.295833
0.329167
0.358333
0.345833
0.325000
0.316667
0.333333
0.345833
0.337500
0.329167
0.320833
0.316667
0.333333
0.341667
0.341667
0.337500
0.320833
0.300000
0.320833
0.345833
0.312500
0.312500
0.329167
0.329167
0.387500
0.350000
0.329167
0.329167
0.329167
0.329167
0.316667
0.308333
0.333333
0.345833
0.329167
0.320833
0.316667
0.316667
0.341667
0.333333
0.325000
0.337500
0.366667
0.333333
0.337500
0.383333
0.541667
0.366667
0.320833
0.283333
0.329167
0.325000
0.320833
0.320833
0.341667
0.345833
0.320833
0.312500
0.308333
0.320833
0.320833
0.341667
0.375000
0.333333
0.329167
0.341667
0.329167
0.312500
0.320833
0.320833
0.329167
0.333333
0.312500
0.320833
0.329167
0.320833
0.312500
0.320833
0.387500
0.362500
0.345833
0.320833
0.329167
0.320833
0.320833
0.329167
0.333333
0.329167
0.329167
0.320833
0.316667
0.308333
0.329167
0.320833
0.325000
0.333333
0.325000
0.325000
0.329167
0.345833
0.350000
0.325000
0.341667
0.337500
0.354167
0.333333
0.325000
0.325000
0.345833
0.450000
0.408333
0.370833
0.329167
0.320833
0.316667
0.333333
0.320833
0.370833
0.350000
0.316667
0.304167
0.304167
0.320833
0.320833
0.295833
0.333333
0.362500
0.354167
0.337500
0.316667
0.316667
0.312500
0.312500
0.312500
0.320833
0.325000
0.329167
0.329167
0.320833
0.325000
0.325000
0.320833
0.350000
0.337500
0.312500
0.316667
0.362500
0.333333
0.337500
0.383333
0.345833
0.325000
0.333333
0.300000
0.308333
0.308333
0.300000
0.350000
0.333333
0.329167
0.329167
0.312500
0.312500
0.320833
0.325000
0.312500
0.333333
0.366667
0.358333
0.375000
0.533333
0.379167
0.341667
0.350000
0.350000
0.341667
0.341667
0.387500
0.320833
0.291667
0.291667
0.316667
0.354167
0.508333
0.633333
0.300000
0.341667
0.329167
0.391667
0.345833
0.375000
0.441667
0.408333
0.325000
0.300000
0.429167
0.375000
0.320833
0.316667
0.329167
0.304167
0.337500
0.216667
0.395833
0.312500
0.304167
0.312500
0.312500
0.304167
0.341667
0.333333
0.312500
0.216667
0.408333
0.337500
0.370833
0.341667
0.333333
0.325000
0.325000
0.304167
0.291667
0.329167
0.341667
0.337500
0.375000
0.337500
0.320833
0.333333
0.333333
0.316667
0.320833
0.345833
0.320833
0.316667
0.325000
0.370833
0.337500
0.350000
0.333333
0.325000
0.320833
0.316667
0.362500
0.345833
0.325000
0.320833
0.320833
0.312500
0.316667
0.362500
0.341667
0.329167
0.316667
0.333333
0.375000
0.333333
0.375000
0.358333
0.325000
0.220833
0.404167
0.308333
0.316667
0.320833
0.212500
0.437500
0.362500
0.337500
0.350000
0.354167
0.329167
0.308333
0.325000
0.345833
0.345833
0.341667
0.325000
0.333333
0.304167
0.308333
0.341667
0.216667
0.412500
0.337500
0.341667
0.320833
0.212500
0.458333
0.362500
0.329167
0.350000
0.350000
0.370833
0.337500
0.325000
0.300000
0.316667
0.316667
0.366667
0.537500
0.362500
0.341667
0.345833
0.475000
0.233333
0.412500
0.300000
0.287500
0.270833
0.295833
0.316667
0.320833
0.362500
0.395833
0.341667
0.308333
0.312500
0.329167
0.308333
0.212500
0.420833
0.329167
0.350000
0.366667
0.425000
0.329167
0.300000
0.300000
0.308333
0.337500
0.329167
0.295833
0.345833
0.391667
0.333333
0.329167
0.320833
0.308333
0.333333
0.308333
0.316667
0.325000
0.345833
0.350000
0.333333
0.350000
0.333333
0.400000
0.658333
0.370833
0.391667
0.320833
0.304167
0.325000
0.212500
0.416667
0.329167
0.308333
0.329167
0.333333
0.333333
0.329167
0.354167
0.345833
0.366667
0.362500
0.333333
0.304167
0.212500
0.400000
0.329167
0.329167
0.370833
0.366667
0.337500
0.341667
0.337500
0.341667
0.316667
0.329167
0.341667
0.333333
0.275000
0.354167
0.325000
0.279167
0.304167
0.300000
0.295833
0.312500
0.312500
0.333333
0.316667
0.370833
0.350000
0.329167
0.337500
0.379167
0.362500
0.345833
0.216667
0.370833
0.337500
0.541667
0.358333
0.320833
0.308333
0.308333
0.341667
0.366667
0.366667
0.345833
0.333333
0.325000
0.333333
0.337500
0.337500
0.325000
0.304167
0.316667
0.320833
0.429167
0.383333
0.354167
0.558333
0.354167
0.354167
0.225000
0.412500
0.337500
0.316667
0.333333
0.383333
0.370833
0.333333
0.312500
0.308333
0.300000
0.300000
0.337500
0.395833
0.316667
0.320833
0.350000
0.475000
0.350000
0.420833
0.341667
0.316667
0.312500
0.329167
0.329167
0.316667
0.358333
0.370833
0.333333
0.320833
0.295833
0.329167
0.516667
0.362500
0.320833
0.312500
0.291667
0.279167
0.300000
0.300000
0.416667
0.379167
0.304167
0.312500
0.358333
0.383333
0.545833
0.362500
0.379167
0.354167
0.308333
0.291667
0.316667
0.316667
0.312500
0.208333
0.408333
0.329167
0.345833
0.387500
0.333333
0.320833
0.333333
0.320833
0.320833
0.325000
0.358333
0.362500
0.583333
0.345833
0.308333
0.325000
0.316667
0.312500
0.325000
0.391667
0.341667
0.337500
0.325000
0.316667
0.325000
0.320833
0.341667
0.362500
0.329167
0.316667
0.341667
0.387500
0.341667
0.337500
1.304167
1.150000
0.966667
0.900000
0.845833
0.770833
1.404167
0.745833
0.808333
1.283333
0.787500
0.900000
0.750000
0.729167
0.791667
0.754167
0.820833
0.737500
0.720833
1.245833
0.879167
0.858333
0.829167
0.783333
0.737500
0.712500
0.750000
0.733333
0.737500
0.737500
0.750000
0.745833
0.745833
0.745833
0.754167
0.750000
0.750000
0.750000
0.758333
0.754167
0.750000
0.754167
0.762500
0.758333
0.754167
0.766667
0.762500
0.754167
0.750000
0.758333
0.758333
0.754167
0.750000
0.750000
0.750000
0.750000
0.741667
0.741667
0.745833
0.745833
0.741667
0.741667
0.741667
0.741667
0.737500
0.737500
0.737500
0.741667
0.729167
0.741667
0.737500
0.741667
0.729167
0.741667
0.737500
0.733333
0.729167
0.741667
0.733333
0.729167
0.729167
0.737500
0.729167
0.733333
0.725000
0.741667
0.725000
0.737500
0.725000
0.733333
0.720833
0.737500
0.729167
0.733333
0.716667
0.737500
0.720833
0.720833
0.725000
0.725000
0.725000
0.716667
0.725000
0.725000
0.725000
0.720833
0.725000
0.725000
0.720833
0.716667
0.725000
0.720833
0.720833
0.725000
0.725000
0.416667
0.712500
0.300000
0.341667
1.158333
0.450000
0.583333
0.608333
0.600000
0.595833
0.675000
0.445833
0.575000
0.587500
1.625000
0.729167
0.583333
0.737500
0.404167
0.345833
0.329167
0.320833
0.612500
0.262500
0.787500
0.775000
0.725000
0.695833
1.129167
0.725000
0.583333
