0.333333
0.300000
0.291667
0.316667
0.354167
0.354167
0.379167
0.362500
0.379167
0.437500
0.362500
0.337500
0.391667
0.345833
0.329167
0.350000
0.412500
0.529167
0.404167
0.358333
0.362500
0.341667
0.329167
0.333333
0.341667
0.412500
0.375000
0.370833
0.329167
0.312500
0.358333
0.354167
0.345833
0.325000
0.300000
0.329167
0.350000
0.329167
0.300000
0.291667
0.341667
0.354167
0.329167
0.358333
0.341667
0.329167
0.308333
0.408333
0.358333
0.345833
0.333333
0.304167
0.300000
0.354167
0.391667
0.337500
0.329167
0.304167
0.337500
0.358333
0.358333
0.341667
0.350000
0.345833
0.387500
0.429167
0.345833
0.329167
0.291667
0.358333
0.408333
0.337500
0.325000
0.325000
0.341667
0.337500
0.345833
0.395833
0.341667
0.329167
0.345833
0.358333
0.333333
0.337500
0.333333
0.379167
0.354167
0.345833
0.345833
0.337500
0.366667
0.337500
0.412500
0.345833
0.312500
0.333333
0.341667
0.304167
0.358333
0.366667
0.333333
0.333333
0.316667
0.337500
0.362500
0.350000
0.345833
0.308333
0.333333
0.345833
0.312500
0.312500
0.379167
0.341667
0.366667
0.383333
0.345833
0.333333
0.312500
0.320833
0.470833
0.337500
0.412500
0.370833
0.416667
0.387500
0.366667
0.350000
0.320833
0.308333
0.345833
0.370833
0.362500
0.333333
0.341667
0.370833
0.370833
0.337500
0.345833
0.333333
0.333333
0.341667
0.312500
0.320833
0.345833
0.341667
0.350000
0.341667
0.337500
0.337500
0.358333
0.366667
0.325000
0.325000
0.350000
0.308333
0.345833
0.341667
0.325000
0.350000
0.387500
0.329167
0.345833
0.350000
0.341667
0.329167
0.325000
0.366667
0.337500
0.362500
0.387500
0.329167
0.316667
0.358333
0.366667
0.345833
0.341667
0.345833
0.350000
0.333333
0.325000
0.320833
0.312500
0.408333
0.400000
1.945833
0.991667
0.970833
1.320833
0.966667
0.937500
0.833333
0.866667
0.954167
1.054167
0.654167
1.237500
0.908333
0.895833
0.962500
0.812500
0.833333
0.837500
0.870833
1.058333
0.962500
0.950000
0.879167
0.870833
0.829167
0.929167
0.804167
0.704167
1.304167
0.941667
0.929167
0.870833
0.875000
0.862500
0.804167
0.887500
0.745833
1.275000
0.937500
0.950000
0.908333
0.883333
0.887500
0.883333
0.858333
0.470833
0.541667
0.566667
0.275000
0.404167
0.625000
0.500000
0.466667
0.491667
0.558333
0.475000
0.487500
0.387500
0.475000
0.487500
0.562500
0.475000
0.400000
0.566667
0.470833
0.400000
0.562500
0.395833
0.491667
0.554167
0.479167
0.491667
0.379167
0.579167
0.491667
0.466667
0.375000
0.462500
0.595833
0.487500
0.387500
0.566667
0.475000
0.475000
0.391667
0.587500
0.470833
0.450000
0.354167
0.595833
0.487500
0.383333
0.554167
0.387500
0.558333
0.362500
0.495833
0.562500
0.383333
0.570833
0.466667
0.387500
0.587500
0.470833
0.479167
0.487500
0.483333
0.479167
0.379167
0.579167
0.470833
0.466667
0.466667
0.358333
0.475000
0.454167
0.462500
0.579167
0.475000
0.470833
0.491667
0.470833
0.362500
0.595833
0.470833
0.475000
0.483333
0.479167
0.475000
0.379167
0.470833
0.466667
0.570833
0.358333
0.562500
0.358333
0.462500
0.458333
0.575000
0.479167
0.466667
0.491667
0.358333
0.458333
0.487500
0.579167
0.475000
0.483333
0.462500
0.470833
0.387500
0.458333
0.458333
0.579167
0.466667
0.487500
0.362500
0.466667
0.487500
0.466667
0.454167
0.570833
0.383333
0.570833
0.358333
0.470833
0.587500
0.466667
0.470833
0.483333
0.358333
0.462500
0.483333
0.466667
0.454167
0.462500
0.462500
0.462500
0.591667
0.350000
0.450000
0.583333
0.366667
0.466667
0.587500
0.350000
0.445833
0.466667
0.458333
0.454167
0.470833
0.583333
0.350000
0.466667
0.587500
0.354167
0.466667
0.595833
0.345833
0.458333
0.483333
0.462500
0.450000
0.462500
0.470833
0.466667
0.466667
0.462500
0.466667
0.583333
0.354167
0.466667
0.475000
0.445833
0.466667
0.483333
0.454167
0.466667
0.583333
0.341667
0.450000
0.479167
0.470833
0.458333
0.475000
0.462500
0.458333
0.479167
0.450000
0.450000
0.466667
0.466667
0.470833
0.475000
0.441667
0.466667
0.479167
0.454167
0.466667
0.500000
0.429167
0.433333
0.466667
0.466667
0.470833
0.591667
0.333333
0.433333
0.475000
0.458333
0.462500
0.600000
0.337500
0.450000
0.591667
0.350000
0.450000
0.591667
0.345833
0.458333
0.604167
0.325000
0.429167
0.483333
0.466667
0.462500
0.587500
0.337500
0.441667
0.483333
0.462500
0.454167
0.583333
0.345833
0.454167
0.483333
0.445833
0.441667
0.475000
0.454167
0.462500
0.475000
0.441667
0.441667
0.466667
0.454167
0.470833
0.466667
0.441667
0.470833
0.466667
0.450000
0.470833
0.479167
0.429167
0.458333
0.483333
0.445833
0.462500
0.491667
0.433333
0.445833
0.491667
0.454167
0.433333
0.479167
0.458333
0.450000
0.483333
0.441667
0.450000
0.604167
0.350000
0.441667
0.595833
0.345833
0.437500
0.483333
0.450000
0.462500
0.491667
0.429167
0.425000
0.475000
0.470833
0.445833
0.483333
0.458333
0.437500
0.479167
0.466667
0.441667
0.583333
0.362500
0.437500
0.479167
0.470833
0.429167
0.458333
0.470833
0.458333
0.458333
0.454167
0.458333
0.458333
0.475000
0.441667
0.466667
0.479167
0.429167
0.454167
0.495833
0.433333
0.445833
0.604167
0.354167
0.412500
0.454167
0.458333
0.462500
0.483333
0.429167
0.450000
0.495833
0.437500
0.433333
0.487500
0.450000
0.445833
0.500000
0.429167
0.433333
0.608333
1.254167
0.412500
1.216667
0.625000
0.983333
0.429167
0.600000
1.237500
0.891667
0.333333
0.562500
0.475000
0.375000
0.379167
0.337500
0.366667
0.350000
0.308333
1.029167
0.416667
1.208333
0.725000
0.391667
0.450000
0.379167
0.533333
0.625000
0.633333
0.400000
1.566667
0.708333
0.520833
0.600000
1.162500
0.787500
0.429167
0.762500
0.641667
0.608333
0.629167
0.616667
0.633333
0.620833
0.629167
0.650000
0.625000
0.704167
0.458333
0.616667
0.345833
0.562500
0.458333
0.454167
0.454167
0.462500
0.354167
0.450000
0.570833
0.366667
0.545833
0.462500
0.345833
0.454167
0.487500
0.545833
0.345833
0.475000
0.441667
0.433333
0.570833
0.462500
0.350000
0.466667
0.445833
0.450000
0.500000
0.441667
0.433333
0.575000
0.383333
0.425000
0.433333
0.583333
0.370833
0.420833
0.445833
0.466667
0.470833
0.445833
0.470833
0.500000
0.408333
0.416667
0.587500
0.495833
0.320833
0.429167
0.466667
0.458333
0.445833
0.475000
0.458333
0.454167
0.475000
0.445833
0.441667
0.483333
0.462500
0.429167
0.479167
0.479167
0.425000
0.433333
0.470833
0.470833
0.441667
0.470833
1.533333
0.341667
1.245833
0.820833
0.425000
0.750000
0.641667
0.591667
0.595833
0.608333
0.395833
1.620833
0.437500
1.170833
0.791667
0.558333
0.641667
0.637500
0.612500
0.608333
0.633333
0.616667
0.633333
0.629167
0.625000
0.625000
0.633333
0.637500
0.641667
0.620833
0.587500
1.279167
0.725000
0.687500
1.216667
0.729167
0.537500
0.429167
0.554167
0.583333
0.904167
1.325000
0.895833
0.791667
0.687500
0.529167
0.391667
0.550000
0.620833
0.633333
0.620833
0.637500
0.612500
0.637500
0.637500
0.645833
0.637500
0.612500
0.654167
0.383333
0.337500
0.350000
1.187500
1.220833
0.812500
0.825000
0.429167
1.179167
0.791667
0.545833
0.650000
0.633333
0.612500
0.612500
0.620833
0.629167
0.620833
0.625000
0.637500
0.616667
0.637500
0.625000
0.633333
0.633333
0.625000
0.629167
0.641667
0.633333
0.633333
0.641667
0.620833
0.625000
0.625000
0.625000
0.625000
0.641667
0.645833
0.637500
0.637500
0.637500
0.637500
0.629167
0.645833
0.412500
1.325000
0.433333
1.233333
0.845833
0.808333
0.825000
0.816667
0.795833
0.816667
0.812500
0.800000
0.795833
0.804167
0.804167
0.804167
0.795833
0.683333
0.458333
0.366667
1.145833
0.933333
0.808333
0.812500
0.800000
0.800000
1.562500
0.787500
0.466667
0.733333
1.312500
0.883333
0.695833
0.579167
0.612500
0.595833
0.558333
0.395833
1.216667
0.720833
0.454167
0.604167
0.454167
1.275000
0.725000
0.545833
0.404167
0.562500
0.395833
0.625000
1.050000
0.737500
0.445833
0.545833
0.566667
0.670833
0.620833
0.625000
0.641667
0.637500
1.404167
0.754167
0.770833
0.429167
0.354167
0.325000
0.312500
0.250000
0.333333
0.566667
0.341667
0.575000
0.470833
0.454167
0.475000
0.370833
0.441667
0.470833
0.466667
0.566667
0.333333
0.445833
0.458333
0.575000
0.370833
0.475000
0.591667
0.362500
0.470833
0.583333
0.479167
0.358333
0.479167
0.479167
0.470833
0.579167
0.479167
0.362500
0.470833
0.487500
0.462500
0.450000
0.466667
0.579167
0.370833
0.462500
0.479167
0.587500
0.354167
0.579167
1.291667
0.850000
0.445833
0.716667
0.658333
1.266667
0.845833
0.837500
0.704167
0.541667
0.387500
1.008333
0.995833
0.950000
0.837500
0.825000
0.450000
0.779167
1.695833
0.733333
0.587500
0.508333
1.100000
0.791667
0.454167
0.520833
0.566667
0.370833
0.420833
0.358333
0.308333
0.504167
0.391667
0.620833
0.641667
0.675000
0.637500
1.775000
0.770833
1.437500
0.725000
0.612500
0.620833
1.645833
0.733333
0.612500
0.650000
0.679167
0.654167
0.662500
0.675000
1.187500
0.725000
0.579167
1.129167
0.770833
1.437500
0.729167
0.570833
0.287500
0.483333
0.691667
1.241667
0.770833
0.454167
0.366667
0.325000
0.262500
0.362500
0.466667
0.345833
0.295833
0.375000
0.379167
1.391667
0.729167
0.633333
0.675000
0.683333
0.975000
1.162500
0.762500
0.445833
0.354167
0.333333
0.337500
0.400000
0.400000
0.350000
0.379167
0.358333
0.329167
0.333333
0.337500
0.337500
0.345833
0.354167
0.345833
0.337500
0.345833
0.350000
0.341667
0.366667
0.345833
0.333333
0.345833
0.358333
0.345833
0.329167
0.333333
0.441667
0.479167
0.425000
0.341667
0.329167
0.337500
0.366667
0.341667
0.333333
0.337500
0.341667
0.350000
0.387500
0.387500
0.350000
0.350000
0.333333
0.358333
0.345833
0.400000
0.391667
0.316667
0.295833
0.337500
0.341667
0.337500
0.345833
0.345833
0.341667
0.325000
0.325000
0.441667
0.362500
0.362500
0.350000
0.337500
0.337500
0.337500
0.333333
0.337500
0.337500
0.345833
0.345833
0.337500
0.337500
0.337500
0.333333
0.333333
0.375000
0.312500
0.350000
0.508333
0.404167
0.354167
0.358333
0.345833
0.387500
0.350000
0.341667
0.333333
0.337500
0.345833
0.337500
0.337500
0.333333
0.341667
0.337500
0.337500
0.337500
0.354167
0.345833
0.404167
0.387500
0.337500
0.370833
0.370833
0.337500
0.391667
0.375000
0.325000
0.308333
0.320833
0.341667
0.375000
0.366667
0.345833
0.341667
0.337500
0.345833
0.341667
0.325000
0.329167
0.391667
0.375000
0.354167
0.375000
0.391667
0.341667
0.383333
0.379167
0.345833
0.325000
0.308333
0.320833
0.329167
0.341667
0.345833
0.375000
0.350000
0.362500
0.375000
0.358333
0.350000
0.350000
0.333333
0.329167
0.337500
0.312500
0.333333
0.345833
0.341667
0.354167
0.362500
0.333333
0.316667
0.312500
0.354167
0.350000
0.316667
0.345833
0.425000
0.391667
0.391667
0.395833
0.350000
0.383333
0.441667
0.445833
0.375000
0.366667
0.404167
0.354167
0.304167
0.312500
0.333333
0.333333
0.316667
0.333333
0.345833
0.333333
0.416667
0.366667
0.341667
0.320833
0.325000
0.341667
0.333333
0.400000
0.375000
0.354167
0.341667
0.312500
0.320833
0.329167
0.329167
0.350000
0.433333
0.433333
0.366667
0.341667
0.404167
0.445833
0.350000
0.337500
0.341667
0.325000
0.337500
0.350000
0.391667
0.412500
0.370833
0.370833
0.458333
0.387500
0.408333
0.358333
0.333333
0.408333
0.370833
0.333333
0.341667
0.345833
0.341667
0.354167
0.350000
0.341667
0.333333
0.333333
0.316667
0.420833
0.437500
0.345833
0.333333
0.341667
0.333333
0.345833
0.333333
0.316667
0.329167
0.337500
0.333333
0.379167
0.345833
0.345833
0.354167
0.366667
0.375000
0.337500
0.333333
0.350000
0.316667
0.329167
0.358333
0.345833
0.350000
0.345833
0.337500
0.341667
0.333333
0.350000
0.387500
0.366667
0.337500
0.350000
0.345833
0.395833
0.362500
0.345833
0.337500
0.341667
0.383333
0.395833
0.345833
0.362500
0.366667
0.333333
0.329167
0.337500
0.304167
0.345833
0.420833
0.575000
0.387500
0.333333
0.325000
0.358333
0.395833
0.345833
0.308333
