0.329167
0.354167
0.341667
0.362500
0.345833
0.341667
0.350000
0.345833
0.333333
0.350000
0.345833
0.400000
0.408333
0.333333
0.362500
0.354167
0.333333
0.320833
0.337500
0.333333
0.358333
0.375000
0.325000
0.341667
0.354167
0.358333
0.345833
0.345833
0.333333
0.404167
0.362500
0.445833
0.379167
0.341667
0.333333
0.304167
0.333333
0.375000
0.345833
0.354167
0.341667
0.366667
0.358333
0.345833
0.333333
0.333333
0.345833
0.341667
0.350000
0.325000
0.354167
0.416667
0.375000
0.595833
0.383333
0.325000
0.300000
0.329167
0.429167
0.391667
0.504167
0.400000
0.345833
0.366667
0.379167
0.425000
0.337500
0.320833
0.395833
0.358333
0.370833
0.370833
0.316667
0.300000
0.337500
0.354167
0.333333
0.420833
0.450000
0.358333
0.333333
0.341667
0.337500
0.329167
0.337500
0.350000
0.337500
0.345833
0.345833
0.370833
0.379167
0.333333
0.345833
0.345833
0.320833
0.316667
0.366667
0.345833
0.400000
0.362500
0.354167
0.354167
0.337500
0.341667
0.337500
0.337500
0.341667
0.350000
0.345833
0.412500
0.400000
0.366667
0.354167
0.354167
0.337500
0.412500
0.375000
0.345833
0.358333
0.337500
0.341667
0.341667
0.329167
0.362500
0.358333
0.362500
0.345833
0.325000
0.333333
0.370833
0.354167
0.600000
0.404167
0.358333
0.370833
0.370833
0.329167
0.329167
0.345833
0.350000
0.370833
0.387500
0.387500
0.337500
0.400000
0.404167
0.345833
0.362500
0.354167
0.379167
0.487500
0.337500
0.300000
0.320833
0.354167
0.362500
0.375000
0.337500
0.354167
0.495833
0.391667
0.350000
0.329167
0.362500
0.350000
0.387500
0.379167
0.483333
0.437500
0.479167
0.387500
0.333333
0.295833
0.312500
0.333333
0.366667
0.341667
0.337500
0.354167
0.366667
0.404167
0.341667
0.379167
0.391667
0.370833
0.350000
0.329167
0.316667
0.333333
0.341667
0.337500
0.341667
0.354167
0.337500
0.345833
0.341667
0.379167
0.391667
0.404167
0.350000
0.370833
0.354167
0.354167
0.345833
0.341667
0.362500
0.387500
0.604167
0.366667
0.333333
0.345833
0.350000
0.387500
0.358333
0.345833
0.350000
0.337500
0.350000
0.337500
0.354167
0.341667
0.408333
0.450000
0.375000
0.400000
0.362500
0.337500
0.337500
0.345833
0.337500
0.341667
0.329167
0.354167
0.433333
0.400000
0.429167
0.400000
0.345833
0.329167
0.412500
0.354167
0.429167
0.575000
0.366667
0.325000
0.325000
0.304167
0.337500
0.333333
0.337500
0.379167
0.379167
0.337500
0.316667
0.325000
0.345833
0.350000
0.337500
0.341667
0.341667
0.325000
0.350000
0.450000
0.354167
0.358333
0.341667
0.345833
0.345833
0.354167
0.350000
0.325000
0.333333
0.404167
0.412500
0.366667
0.337500
0.316667
0.379167
0.370833
0.458333
0.408333
0.425000
0.587500
0.416667
0.345833
0.358333
0.366667
0.358333
0.354167
0.345833
0.362500
0.362500
0.337500
0.337500
0.383333
0.450000
0.358333
0.333333
0.341667
0.337500
0.333333
0.345833
0.354167
0.345833
0.425000
0.391667
0.337500
0.350000
0.341667
0.358333
0.366667
0.400000
0.345833
0.333333
0.370833
0.370833
0.345833
0.395833
0.362500
0.362500
0.337500
0.400000
0.462500
0.375000
0.379167
0.362500
0.337500
0.358333
0.333333
0.333333
0.341667
0.341667
0.333333
0.333333
0.333333
0.337500
0.333333
0.341667
0.341667
0.341667
0.341667
0.395833
0.354167
0.370833
0.366667
0.337500
0.375000
0.345833
0.362500
0.358333
0.350000
0.350000
0.350000
0.350000
0.341667
0.400000
0.362500
0.358333
0.358333
0.337500
0.362500
0.358333
0.387500
0.370833
0.325000
0.341667
0.358333
0.358333
0.341667
0.395833
0.379167
0.337500
0.316667
0.341667
0.366667
0.354167
0.350000
0.341667
0.404167
0.383333
0.333333
0.337500
0.341667
0.350000
0.341667
0.408333
0.370833
0.345833
0.420833
0.375000
0.333333
0.316667
0.333333
0.345833
0.337500
0.370833
0.350000
0.337500
0.337500
0.341667
0.358333
0.350000
0.329167
0.379167
0.383333
0.354167
0.341667
0.325000
0.316667
0.333333
0.341667
0.337500
0.333333
0.337500
0.350000
0.345833
0.408333
0.391667
0.366667
0.358333
0.350000
0.395833
0.362500
0.341667
0.370833
0.358333
0.325000
0.333333
0.329167
0.316667
0.308333
0.354167
0.350000
0.387500
0.341667
0.316667
0.329167
0.325000
0.329167
0.337500
0.366667
0.350000
0.329167
0.370833
0.350000
0.345833
0.375000
0.345833
0.437500
0.375000
0.345833
0.350000
0.383333
0.383333
0.362500
0.329167
0.320833
0.320833
0.354167
0.337500
0.429167
0.379167
0.433333
0.520833
0.433333
0.354167
0.329167
0.354167
0.350000
0.333333
0.333333
0.325000
0.345833
0.358333
0.358333
0.350000
0.337500
0.337500
0.404167
0.341667
0.325000
0.345833
0.325000
0.320833
0.333333
0.354167
0.354167
0.345833
0.320833
0.362500
0.325000
0.354167
0.362500
0.354167
0.358333
0.354167
0.329167
0.316667
0.325000
0.341667
0.341667
0.362500
0.375000
0.479167
0.445833
0.354167
0.316667
0.308333
0.316667
0.316667
0.312500
0.337500
0.345833
0.345833
0.329167
0.358333
0.362500
0.345833
0.333333
0.329167
0.316667
0.341667
0.341667
0.337500
0.350000
0.345833
0.350000
0.345833
0.383333
0.391667
0.441667
0.345833
0.408333
0.370833
0.337500
0.345833
0.337500
0.341667
0.341667
0.354167
0.341667
0.358333
0.341667
0.345833
0.350000
0.404167
0.395833
0.337500
0.337500
0.345833
0.370833
0.370833
0.337500
0.333333
0.366667
0.370833
0.325000
0.333333
0.358333
0.358333
0.366667
0.358333
0.341667
0.383333
0.370833
0.337500
0.362500
0.333333
0.345833
0.366667
0.325000
0.295833
0.333333
0.383333
0.345833
0.337500
0.345833
0.362500
0.345833
0.325000
0.320833
0.329167
0.341667
0.316667
0.325000
0.333333
0.350000
0.362500
0.425000
0.316667
0.337500
0.375000
0.433333
0.366667
0.370833
0.345833
0.404167
0.366667
0.416667
0.445833
0.479167
0.683333
0.337500
0.337500
0.325000
0.341667
0.350000
0.350000
0.341667
0.354167
0.341667
0.358333
0.395833
0.408333
0.358333
0.333333
0.308333
0.337500
0.337500
0.350000
0.370833
0.341667
0.425000
0.370833
0.337500
0.341667
0.329167
0.337500
0.341667
0.345833
0.350000
0.333333
0.320833
0.337500
0.312500
0.333333
0.408333
0.350000
0.320833
0.316667
0.416667
0.350000
0.350000
0.341667
0.333333
0.329167
0.345833
0.337500
0.358333
0.354167
0.416667
0.337500
0.312500
0.412500
0.345833
0.341667
0.358333
0.345833
0.354167
0.337500
0.358333
0.387500
0.354167
0.404167
0.375000
0.341667
0.337500
0.325000
0.320833
0.325000
0.345833
0.387500
0.333333
0.316667
0.316667
0.325000
0.370833
0.333333
0.333333
0.329167
0.366667
0.391667
0.320833
0.325000
0.337500
0.358333
0.329167
0.341667
0.404167
0.533333
0.345833
0.337500
0.341667
0.320833
0.308333
0.341667
0.395833
0.354167
0.358333
0.320833
0.304167
0.316667
0.320833
0.337500
0.329167
0.345833
0.366667
0.354167
0.404167
0.391667
0.341667
0.308333
0.325000
0.366667
0.366667
0.395833
0.395833
0.345833
0.341667
0.350000
0.337500
0.345833
0.400000
0.366667
0.433333
0.575000
0.404167
0.316667
0.354167
0.337500
0.304167
0.320833
0.337500
0.350000
0.337500
0.329167
0.325000
0.375000
0.358333
0.337500
0.316667
0.329167
0.312500
0.345833
0.345833
0.354167
0.341667
0.354167
0.345833
0.358333
0.337500
0.329167
0.329167
0.345833
0.479167
0.345833
0.354167
0.370833
0.416667
0.362500
0.337500
0.312500
0.325000
0.329167
0.341667
0.379167
0.341667
0.366667
0.416667
0.345833
0.329167
0.300000
0.358333
0.383333
0.345833
0.329167
0.316667
0.520833
0.400000
0.358333
0.329167
0.337500
0.345833
0.333333
0.308333
0.312500
0.337500
0.354167
0.370833
0.337500
0.333333
0.362500
0.566667
0.679167
0.345833
0.329167
0.379167
0.329167
0.308333
0.366667
0.441667
0.379167
0.337500
0.320833
0.329167
0.329167
0.312500
0.354167
0.362500
0.337500
0.345833
0.345833
0.320833
0.316667
0.333333
0.420833
0.345833
0.341667
0.320833
0.350000
0.329167
0.329167
0.345833
0.425000
0.320833
0.291667
0.329167
0.370833
0.366667
0.325000
0.320833
0.387500
0.345833
0.333333
0.358333
0.337500
0.337500
0.370833
0.312500
0.325000
0.329167
0.333333
0.370833
0.366667
0.358333
0.404167
0.541667
0.358333
0.333333
0.329167
0.316667
0.391667
0.354167
0.425000
0.362500
0.350000
0.308333
0.316667
0.341667
0.333333
0.329167
0.350000
0.345833
0.350000
0.345833
0.325000
0.308333
0.312500
0.312500
0.337500
0.358333
0.325000
0.320833
0.320833
0.337500
0.400000
0.345833
0.329167
0.333333
0.400000
0.350000
0.395833
0.395833
0.341667
0.308333
0.291667
0.295833
0.337500
0.337500
0.316667
0.337500
0.370833
0.404167
0.350000
0.345833
0.350000
0.375000
0.341667
0.345833
0.400000
0.445833
0.325000
0.304167
0.375000
0.370833
0.337500
0.312500
0.320833
0.329167
0.350000
0.395833
0.345833
0.304167
0.329167
0.333333
0.358333
0.362500
0.354167
0.354167
0.350000
0.333333
0.370833
0.337500
0.337500
0.325000
0.350000
0.362500
0.341667
0.341667
0.362500
0.329167
0.354167
0.358333
0.379167
0.362500
0.341667
0.341667
0.325000
0.325000
0.383333
0.370833
0.345833
0.362500
0.408333
0.345833
0.345833
0.358333
0.341667
0.354167
0.350000
0.337500
0.312500
0.308333
0.337500
0.354167
0.345833
0.358333
0.358333
0.341667
0.320833
0.400000
0.387500
0.341667
0.395833
0.370833
0.337500
0.329167
0.320833
0.354167
0.379167
0.337500
0.337500
0.329167
0.345833
0.345833
0.337500
0.350000
0.333333
0.337500
0.345833
0.412500
0.604167
0.354167
0.329167
0.387500
0.354167
0.358333
0.383333
0.345833
0.350000
0.379167
0.341667
0.337500
0.366667
0.333333
0.345833
0.375000
0.395833
0.345833
0.341667
0.400000
0.370833
0.350000
0.329167
0.312500
0.395833
0.395833
0.362500
0.379167
0.408333
0.362500
0.333333
0.350000
0.329167
0.350000
0.429167
0.362500
0.350000
0.366667
0.370833
0.379167
0.333333
0.345833
0.395833
0.341667
0.337500
0.375000
0.358333
0.350000
0.358333
0.387500
0.337500
0.312500
0.362500
0.366667
0.354167
0.462500
0.425000
0.387500
0.341667
0.333333
0.320833
0.325000
0.350000
0.370833
0.345833
0.362500
0.358333
0.425000
0.358333
0.333333
0.341667
0.341667
0.341667
0.345833
0.345833
0.333333
0.316667
0.345833
0.325000
0.308333
0.358333
0.370833
0.387500
0.358333
0.341667
0.350000
0.341667
0.437500
0.408333
0.391667
0.375000
0.383333
0.345833
0.341667
0.337500
0.320833
0.329167
0.320833
0.325000
0.366667
0.370833
0.350000
0.354167
0.412500
0.379167
0.366667
0.320833
0.333333
0.329167
0.325000
0.395833
0.375000
0.345833
0.345833
0.345833
0.325000
0.337500
0.587500
0.362500
0.325000
0.329167
0.329167
0.345833
0.337500
0.337500
0.329167
0.475000
0.354167
0.333333
0.325000
0.320833
0.350000
0.329167
0.379167
0.395833
0.354167
0.345833
0.325000
0.350000
0.354167
0.337500
0.404167
0.462500
0.375000
0.341667
0.370833
0.370833
0.358333
0.383333
0.325000
0.362500
0.383333
0.345833
0.345833
0.358333
0.337500
0.300000
0.320833
0.312500
0.308333
0.362500
0.350000
0.404167
0.545833
0.337500
0.341667
0.470833
0.383333
0.350000
0.329167
0.333333
0.329167
0.358333
0.483333
0.366667
0.341667
0.341667
0.358333
0.354167
0.350000
0.354167
0.358333
0.641667
0.408333
0.354167
0.350000
0.366667
0.316667
0.362500
0.400000
0.333333
0.312500
0.316667
0.329167
0.329167
0.341667
0.358333
0.329167
0.337500
0.383333
0.358333
0.370833
0.312500
0.312500
0.366667
0.358333
0.479167
0.350000
0.325000
0.316667
0.300000
0.329167
0.366667
0.400000
0.366667
0.366667
0.345833
0.337500
0.512500
0.358333
0.333333
0.395833
0.362500
0.337500
0.383333
0.362500
0.329167
0.337500
0.325000
0.337500
0.337500
0.395833
0.350000
0.325000
0.329167
0.329167
0.320833
0.354167
0.312500
0.316667
0.333333
0.358333
0.395833
0.366667
0.320833
0.333333
0.345833
0.362500
0.416667
0.350000
0.320833
0.316667
0.333333
0.316667
0.325000
0.341667
0.345833
0.345833
0.333333
0.345833
0.354167
0.312500
0.308333
0.458333
0.437500
0.429167
0.366667
0.337500
0.379167
0.366667
0.312500
0.337500
0.333333
0.333333
0.400000
0.383333
0.333333
0.354167
0.329167
0.320833
0.337500
0.358333
0.370833
0.370833
0.320833
0.287500
0.362500
0.404167
0.354167
0.375000
0.370833
0.333333
0.308333
0.304167
0.312500
0.333333
0.433333
0.358333
0.366667
0.350000
0.329167
0.341667
0.362500
0.341667
0.337500
0.341667
0.312500
0.316667
0.345833
0.345833
0.370833
0.354167
0.333333
0.345833
0.354167
0.383333
0.350000
0.370833
0.366667
0.337500
0.362500
0.362500
0.337500
0.300000
0.341667
0.350000
0.337500
0.362500
0.333333
0.329167
0.437500
0.341667
0.358333
0.416667
0.345833
0.366667
0.341667
0.337500
0.345833
0.379167
0.350000
0.337500
0.345833
0.358333
0.383333
0.358333
0.366667
0.354167
0.333333
0.354167
0.375000
0.325000
0.308333
0.441667
0.383333
0.341667
0.570833
0.370833
0.362500
0.345833
0.358333
0.341667
0.366667
0.345833
0.358333
0.387500
0.387500
0.358333
0.354167
0.350000
0.350000
0.362500
0.350000
0.362500
0.341667
0.350000
0.329167
0.341667
0.445833
0.350000
0.329167
0.308333
0.333333
0.433333
0.379167
0.362500
0.429167
0.354167
0.475000
0.358333
0.341667
0.325000
0.329167
0.345833
0.404167
0.354167
0.345833
0.350000
0.345833
0.333333
0.375000
0.591667
0.450000
0.412500
0.479167
0.495833
0.675000
0.312500
0.341667
0.370833
0.337500
0.337500
0.325000
0.345833
0.354167
0.387500
0.350000
0.412500
0.420833
0.416667
0.358333
0.325000
0.329167
0.350000
0.345833
0.341667
0.350000
0.354167
0.350000
0.345833
0.325000
0.333333
0.333333
0.370833
0.325000
0.358333
0.354167
0.320833
0.312500
0.333333
0.354167
0.354167
0.333333
0.370833
0.379167
0.383333
0.391667
0.366667
0.329167
0.325000
0.362500
0.350000
0.316667
0.325000
0.379167
0.354167
0.379167
0.420833
0.370833
0.345833
0.341667
0.325000
0.316667
0.366667
0.375000
0.362500
0.366667
0.329167
0.350000
0.375000
0.462500
0.354167
0.333333
0.408333
0.433333
0.387500
0.354167
0.345833
0.329167
0.362500
0.350000
0.412500
0.375000
0.341667
0.358333
0.387500
0.354167
0.325000
0.329167
0.358333
0.366667
0.383333
0.362500
0.345833
0.366667
0.554167
0.366667
0.354167
0.341667
0.341667
0.420833
0.429167
0.391667
0.354167
0.341667
0.329167
0.325000
0.333333
0.345833
0.354167
0.341667
0.345833
0.354167
0.350000
0.350000
0.350000
0.375000
0.341667
0.379167
0.358333
0.370833
0.375000
0.329167
0.341667
0.362500
0.375000
0.362500
0.358333
0.362500
0.329167
0.325000
0.345833
0.362500
0.412500
0.370833
0.350000
0.354167
0.350000
0.341667
0.345833
0.345833
0.350000
0.337500
0.354167
0.350000
0.354167
0.341667
0.366667
0.350000
0.333333
0.333333
0.350000
0.354167
0.316667
0.333333
0.400000
0.375000
0.400000
0.383333
0.358333
0.350000
0.375000
0.366667
0.366667
0.333333
0.345833
0.325000
0.345833
0.345833
0.358333
0.362500
0.345833
0.350000
0.358333
0.350000
0.345833
0.350000
0.341667
0.354167
0.358333
0.341667
0.375000
0.362500
0.366667
0.375000
0.333333
0.350000
0.341667
0.370833
0.345833
0.391667
0.358333
0.329167
0.316667
0.325000
0.329167
0.341667
0.333333
0.350000
0.337500
0.375000
0.358333
0.345833
0.354167
0.341667
0.337500
0.375000
0.375000
0.350000
0.366667
0.341667
0.354167
0.387500
0.541667
0.383333
0.345833
0.341667
0.395833
0.333333
0.333333
0.316667
0.316667
0.329167
0.341667
0.350000
0.345833
0.366667
0.333333
0.345833
0.362500
0.325000
0.341667
0.337500
0.370833
0.329167
0.404167
0.441667
0.400000
0.337500
0.325000
0.341667
0.350000
0.354167
0.333333
0.337500
0.333333
0.304167
0.316667
0.345833
0.354167
0.341667
0.333333
0.350000
0.320833
1.262500
1.362500
0.970833
0.879167
1.325000
0.962500
0.729167
1.416667
0.783333
1.391667
0.916667
0.679167
0.933333
0.750000
1.308333
0.891667
0.804167
0.754167
1.379167
0.745833
0.879167
0.829167
1.287500
0.883333
0.804167
0.741667
1.370833
0.737500
0.716667
1.375000
0.729167
0.720833
0.750000
1.258333
0.854167
0.733333
0.729167
0.737500
1.258333
0.866667
0.733333
