0.433333
0.454167
0.458333
0.470833
0.450000
0.454167
0.466667
0.437500
0.458333
0.479167
0.441667
0.454167
0.475000
0.433333
0.429167
0.462500
0.450000
0.470833
1.070833
1.266667
0.829167
0.420833
0.737500
1.508333
0.966667
0.591667
1.066667
0.825000
0.433333
0.725000
1.425000
0.691667
0.420833
0.750000
0.470833
1.304167
0.812500
0.441667
0.745833
1.183333
0.704167
0.562500
0.650000
0.583333
0.600000
1.229167
0.737500
1.479167
0.850000
0.808333
0.700000
0.500000
0.379167
1.241667
0.745833
0.441667
1.033333
0.695833
0.541667
0.633333
0.566667
0.391667
0.470833
1.220833
0.745833
1.491667
0.737500
0.700000
0.458333
0.354167
0.300000
0.275000
0.295833
0.300000
0.304167
0.300000
0.308333
0.308333
0.312500
0.316667
0.312500
0.316667
0.320833
0.320833
0.325000
0.333333
0.333333
0.329167
0.325000
0.320833
0.304167
0.670833
0.533333
0.466667
0.462500
0.462500
0.462500
0.462500
0.462500
0.466667
0.458333
0.462500
0.458333
0.462500
0.458333
0.462500
0.462500
0.462500
0.458333
0.458333
0.458333
0.420833
0.445833
0.462500
0.462500
0.450000
0.450000
0.450000
0.458333
0.454167
0.454167
0.450000
0.450000
0.450000
0.454167
0.450000
0.458333
0.445833
0.454167
0.450000
0.441667
0.454167
0.454167
0.450000
0.454167
0.445833
0.445833
0.454167
0.450000
0.454167
0.450000
0.445833
0.445833
0.450000
0.454167
0.450000
0.454167
0.445833
0.445833
0.462500
0.470833
0.462500
0.466667
0.466667
0.462500
0.450000
0.462500
0.462500
0.458333
0.462500
0.466667
0.462500
0.458333
0.454167
0.462500
0.458333
0.462500
0.462500
0.466667
0.450000
0.445833
0.466667
0.462500
0.458333
0.466667
0.454167
0.441667
0.458333
0.466667
0.458333
0.462500
0.462500
0.445833
0.454167
0.466667
0.454167
0.454167
0.470833
0.458333
0.433333
0.454167
0.441667
0.450000
0.450000
0.445833
0.475000
0.470833
0.437500
0.458333
0.437500
0.441667
0.458333
0.445833
0.475000
0.466667
0.450000
0.466667
0.466667
0.429167
0.445833
0.450000
0.445833
0.445833
0.450000
0.462500
0.470833
0.445833
0.462500
0.458333
0.454167
0.458333
0.458333
0.454167
0.458333
0.470833
0.454167
0.445833
0.466667
0.458333
0.450000
0.466667
0.454167
0.458333
0.462500
0.450000
0.450000
0.470833
0.450000
0.454167
0.475000
0.454167
0.437500
0.450000
0.454167
0.462500
0.470833
0.445833
0.445833
0.470833
0.450000
0.445833
0.470833
0.454167
0.454167
0.462500
0.445833
0.445833
0.470833
0.454167
0.450000
0.475000
0.441667
0.437500
0.470833
0.462500
0.441667
0.462500
0.466667
0.437500
0.454167
0.470833
0.445833
0.458333
0.470833
0.445833
0.441667
0.466667
0.462500
0.441667
0.466667
0.458333
0.441667
0.462500
0.458333
0.445833
0.462500
0.466667
0.445833
0.450000
0.466667
0.441667
0.450000
0.479167
0.445833
0.450000
0.470833
0.445833
0.437500
0.470833
0.454167
0.450000
0.475000
0.450000
0.437500
0.462500
0.458333
0.450000
0.470833
0.450000
0.445833
0.475000
0.441667
0.445833
0.470833
0.454167
0.450000
0.466667
0.445833
0.441667
0.470833
0.454167
0.445833
0.483333
0.437500
0.433333
0.470833
0.458333
0.445833
0.475000
0.445833
0.433333
0.470833
0.466667
0.433333
0.450000
0.454167
0.458333
0.466667
0.429167
0.445833
0.450000
0.454167
0.483333
0.433333
0.433333
0.479167
0.466667
0.433333
0.454167
0.462500
0.445833
0.458333
0.462500
0.441667
0.462500
0.470833
0.437500
0.450000
0.475000
0.437500
0.437500
0.470833
0.462500
0.433333
0.454167
0.470833
0.433333
0.445833
0.470833
0.458333
0.441667
0.458333
0.462500
0.433333
0.445833
0.450000
0.466667
0.466667
0.425000
0.441667
0.454167
0.466667
0.475000
0.433333
0.450000
0.475000
0.445833
0.437500
0.475000
0.458333
0.437500
0.470833
0.462500
0.429167
0.450000
0.445833
0.470833
1.300000
0.841667
0.445833
0.704167
1.520833
1.004167
0.858333
0.829167
0.837500
0.433333
0.645833
0.745833
0.541667
0.379167
0.554167
0.595833
0.604167
0.608333
0.612500
0.612500
0.625000
0.612500
0.616667
0.612500
0.612500
0.620833
0.600000
0.612500
0.600000
0.608333
0.604167
0.633333
0.625000
0.620833
0.612500
0.625000
0.616667
0.600000
0.604167
0.608333
0.604167
0.608333
0.608333
0.608333
0.612500
0.691667
1.316667
0.433333
1.037500
0.720833
0.675000
0.708333
1.120833
0.845833
0.845833
0.833333
0.816667
0.808333
0.812500
0.816667
0.800000
0.816667
0.800000
0.808333
0.791667
0.808333
0.795833
0.800000
0.783333
0.804167
0.787500
0.795833
0.791667
0.441667
1.070833
0.800000
0.450000
0.658333
0.625000
1.112500
0.820833
0.454167
0.958333
0.975000
0.720833
0.729167
1.566667
0.712500
0.550000
0.987500
1.608333
0.879167
0.725000
0.804167
0.608333
0.387500
0.337500
0.316667
0.300000
0.312500
0.316667
0.304167
0.283333
0.262500
0.283333
0.275000
0.375000
0.362500
0.325000
0.308333
0.337500
0.525000
0.404167
0.333333
0.366667
0.466667
0.366667
0.308333
0.287500
0.304167
0.312500
0.345833
0.325000
0.295833
0.504167
0.354167
0.300000
0.300000
0.300000
0.341667
0.375000
0.320833
0.295833
0.320833
0.316667
0.325000
0.316667
0.420833
0.354167
0.350000
0.337500
0.350000
0.354167
0.370833
0.329167
0.358333
0.370833
0.354167
0.420833
0.362500
0.337500
0.345833
0.370833
0.429167
0.470833
0.337500
0.320833
0.366667
0.337500
0.429167
0.366667
0.333333
0.333333
0.345833
0.429167
0.354167
0.350000
0.450000
0.479167
0.408333
0.370833
0.333333
0.416667
0.462500
0.416667
0.362500
0.329167
0.400000
0.341667
0.333333
0.350000
0.329167
0.295833
0.320833
0.416667
0.362500
0.325000
0.304167
0.333333
0.366667
0.329167
0.350000
0.400000
0.333333
0.358333
0.358333
0.391667
0.354167
0.383333
0.404167
0.358333
0.312500
0.333333
0.325000
0.583333
0.420833
0.329167
0.312500
0.345833
0.325000
0.387500
0.375000
0.320833
0.345833
0.345833
0.325000
0.341667
0.337500
0.412500
0.416667
0.362500
0.325000
0.345833
0.387500
0.375000
0.550000
0.437500
0.412500
0.391667
0.358333
0.325000
0.350000
0.345833
0.325000
0.341667
0.320833
0.362500
0.362500
0.320833
0.375000
0.416667
0.350000
0.316667
0.291667
0.329167
0.379167
0.337500
0.304167
0.291667
0.404167
0.333333
0.320833
0.329167
0.316667
0.354167
0.320833
0.333333
0.333333
0.404167
0.437500
0.416667
0.354167
0.341667
0.416667
0.375000
0.325000
0.354167
0.329167
0.387500
0.429167
0.429167
0.325000
0.345833
0.425000
0.383333
0.329167
0.379167
0.395833
0.329167
0.337500
0.345833
0.333333
0.358333
0.329167
0.366667
0.408333
0.362500
0.358333
0.362500
0.420833
0.420833
0.412500
0.429167
0.400000
0.354167
0.316667
0.295833
0.308333
0.400000
0.433333
0.395833
0.454167
0.370833
0.308333
0.329167
0.341667
0.329167
0.325000
0.325000
0.383333
0.370833
0.337500
0.316667
0.320833
0.333333
0.383333
0.345833
0.379167
0.408333
0.425000
0.420833
0.395833
0.341667
0.366667
0.375000
0.312500
0.350000
0.429167
0.429167
0.408333
0.350000
0.316667
0.325000
0.316667
0.350000
0.341667
0.358333
0.354167
0.333333
0.337500
0.412500
0.387500
0.341667
0.358333
0.425000
0.425000
0.416667
0.412500
0.416667
0.370833
0.329167
0.354167
0.420833
0.345833
0.300000
0.400000
0.416667
0.408333
0.358333
0.333333
0.312500
0.295833
0.337500
0.337500
0.329167
0.316667
0.295833
0.291667
0.383333
0.333333
0.370833
0.429167
0.462500
0.416667
0.437500
0.429167
0.437500
0.425000
0.433333
0.420833
0.429167
0.420833
0.425000
0.420833
0.420833
0.416667
0.408333
0.375000
0.333333
0.512500
0.358333
0.316667
0.341667
0.320833
0.304167
0.316667
0.350000
0.316667
0.312500
0.525000
0.354167
0.308333
0.304167
0.320833
0.325000
0.325000
0.308333
0.341667
0.345833
0.404167
0.391667
0.350000
0.395833
0.475000
0.554167
0.395833
0.345833
0.316667
0.362500
0.383333
0.404167
0.420833
0.366667
0.337500
0.487500
0.370833
0.354167
0.391667
0.412500
0.362500
0.320833
0.333333
0.345833
0.412500
0.362500
0.337500
0.325000
0.375000
0.366667
0.337500
0.387500
0.416667
0.404167
0.345833
0.329167
0.358333
0.325000
0.350000
0.375000
0.341667
0.358333
0.358333
0.308333
0.429167
0.350000
0.320833
0.395833
0.425000
0.350000
0.341667
0.408333
0.445833
0.370833
0.320833
0.391667
0.454167
0.379167
0.333333
0.341667
0.337500
0.329167
0.350000
0.325000
0.312500
0.320833
0.408333
0.370833
0.325000
0.316667
0.358333
0.391667
0.391667
0.350000
0.316667
0.308333
0.300000
0.312500
0.316667
0.312500
0.337500
0.341667
0.329167
0.400000
0.345833
0.320833
0.454167
0.412500
0.387500
0.354167
0.325000
0.308333
0.333333
0.404167
0.354167
0.337500
0.362500
0.337500
0.358333
0.375000
0.333333
0.320833
0.362500
0.445833
0.500000
0.470833
0.379167
0.329167
0.329167
0.320833
0.354167
0.375000
0.337500
0.400000
0.420833
0.366667
0.333333
0.358333
0.375000
0.325000
0.333333
0.341667
0.508333
0.345833
0.308333
0.329167
0.316667
0.354167
0.362500
0.433333
0.445833
0.458333
0.345833
0.312500
0.366667
0.316667
0.300000
0.325000
0.370833
0.362500
0.341667
0.425000
0.429167
0.366667
0.329167
0.358333
0.429167
0.366667
0.412500
0.341667
0.366667
0.358333
0.329167
0.337500
0.329167
0.350000
0.425000
0.391667
0.441667
0.325000
0.312500
0.429167
0.354167
0.312500
0.308333
0.312500
0.333333
0.333333
0.408333
0.329167
0.345833
0.345833
0.358333
0.475000
0.383333
0.425000
0.441667
0.437500
0.433333
0.404167
0.354167
0.333333
0.400000
0.362500
0.345833
0.387500
0.362500
0.337500
0.337500
0.333333
0.316667
0.316667
0.333333
0.379167
0.366667
0.308333
0.283333
0.329167
0.362500
0.375000
0.345833
0.358333
0.308333
0.354167
0.350000
0.320833
0.337500
0.329167
0.308333
0.341667
0.370833
0.375000
0.358333
0.325000
0.337500
0.333333
0.375000
0.562500
0.337500
0.337500
0.400000
0.508333
0.337500
0.304167
0.345833
0.337500
0.345833
0.337500
0.416667
0.495833
0.383333
0.333333
0.350000
0.441667
0.358333
0.420833
1.645833
1.554167
1.350000
1.291667
0.950000
0.937500
0.916667
0.920833
0.912500
0.895833
0.908333
0.900000
0.883333
0.879167
0.804167
0.816667
0.729167
1.266667
0.770833
0.800000
1.154167
0.945833
0.929167
0.908333
0.891667
0.891667
0.883333
0.883333
0.879167
0.879167
0.879167
0.883333
0.879167
0.883333
0.883333
0.883333
0.883333
0.887500
0.879167
0.883333
0.904167
0.875000
0.912500
0.891667
0.479167
0.704167
1.925000
0.762500
0.420833
0.937500
0.708333
0.816667
0.675000
1.141667
0.745833
0.637500
0.587500
0.541667
0.570833
0.400000
0.354167
0.316667
0.354167
0.379167
0.341667
0.312500
0.312500
0.304167
0.237500
0.283333
0.337500
0.495833
0.354167
0.304167
0.483333
0.366667
0.345833
0.387500
0.354167
0.316667
0.329167
0.325000
0.308333
0.333333
0.350000
0.412500
0.354167
0.354167
0.337500
0.312500
0.308333
0.325000
0.341667
0.329167
0.329167
0.362500
0.354167
0.370833
1.479167
0.437500
1.358333
0.775000
0.508333
1.183333
0.741667
0.583333
0.641667
0.675000
0.687500
0.595833
0.370833
0.337500
0.341667
0.329167
0.329167
0.475000
0.187500
0.550000
0.366667
0.333333
0.370833
0.450000
0.345833
0.325000
0.366667
0.345833
0.358333
0.362500
0.333333
0.316667
0.312500
0.329167
0.387500
0.354167
0.362500
0.354167
0.358333
0.387500
0.358333
0.350000
0.362500
0.325000
0.300000
0.312500
0.341667
0.420833
0.370833
0.358333
0.345833
0.345833
0.429167
0.404167
0.333333
0.312500
0.329167
0.325000
0.325000
0.320833
0.591667
0.429167
0.379167
0.350000
0.325000
0.320833
0.316667
0.345833
0.479167
0.383333
0.350000
0.391667
0.358333
0.341667
0.375000
0.445833
0.412500
0.320833
0.283333
0.316667
0.320833
0.329167
0.325000
0.345833
0.333333
0.316667
0.333333
0.329167
0.441667
0.233333
0.358333
0.354167
0.358333
0.341667
0.345833
0.333333
0.337500
0.337500
0.312500
0.229167
0.454167
0.329167
0.329167
0.329167
0.312500
0.350000
0.383333
0.366667
0.341667
0.341667
0.333333
0.345833
0.329167
0.304167
0.325000
0.341667
0.341667
0.404167
0.400000
0.266667
0.570833
0.329167
0.312500
0.329167
0.233333
0.450000
0.354167
0.379167
0.325000
0.341667
0.383333
0.362500
0.337500
0.325000
0.345833
0.350000
0.358333
0.370833
0.337500
0.350000
0.337500
0.379167
0.445833
0.391667
0.350000
0.320833
0.320833
0.320833
0.312500
0.329167
0.358333
0.341667
0.325000
0.325000
0.316667
0.333333
0.366667
0.358333
0.370833
0.354167
0.320833
0.337500
0.354167
0.541667
0.395833
0.408333
0.375000
0.337500
0.312500
0.337500
0.341667
0.387500
0.366667
0.325000
0.329167
0.512500
0.379167
0.366667
0.508333
0.454167
0.383333
0.441667
0.358333
0.337500
0.320833
0.312500
0.308333
0.370833
0.400000
0.333333
0.333333
0.325000
0.358333
0.345833
0.408333
0.550000
0.383333
0.375000
0.395833
0.358333
0.333333
0.416667
0.441667
0.408333
0.366667
0.337500
0.316667
0.320833
0.362500
0.320833
0.291667
0.350000
0.454167
0.395833
0.341667
0.345833
0.341667
0.325000
0.341667
0.333333
0.304167
0.325000
0.366667
0.358333
0.316667
0.345833
0.341667
0.383333
0.362500
0.320833
0.308333
0.325000
0.333333
0.329167
0.337500
0.337500
0.354167
0.358333
0.329167
