0.558333
0.566667
0.554167
0.554167
0.558333
0.566667
0.554167
0.554167
0.558333
0.566667
0.554167
0.554167
0.558333
0.562500
0.558333
0.554167
0.554167
0.562500
0.558333
0.554167
0.554167
0.558333
0.566667
0.554167
0.554167
0.558333
0.558333
0.558333
0.554167
0.554167
0.554167
0.566667
0.550000
0.558333
0.558333
0.566667
0.562500
0.566667
0.566667
0.562500
0.225000
0.337500
0.566667
0.575000
0.570833
0.575000
0.579167
0.570833
0.566667
0.575000
0.579167
0.566667
0.566667
0.570833
0.570833
0.570833
0.562500
0.562500
0.566667
0.566667
0.558333
0.558333
0.562500
0.566667
0.554167
0.558333
0.558333
0.562500
0.558333
0.554167
0.554167
0.562500
0.558333
0.554167
0.554167
0.558333
0.562500
0.558333
0.550000
0.558333
0.562500
0.550000
0.554167
0.550000
0.558333
0.562500
0.550000
0.554167
0.554167
0.558333
0.554167
0.550000
0.550000
0.554167
0.562500
0.554167
0.550000
0.558333
0.562500
0.566667
0.562500
0.566667
0.566667
0.566667
0.566667
0.562500
0.570833
0.562500
0.566667
0.562500
0.562500
0.566667
0.570833
0.562500
0.558333
0.562500
0.566667
0.562500
0.558333
0.554167
0.558333
0.570833
0.554167
0.554167
0.558333
0.566667
0.554167
0.554167
0.554167
0.566667
0.554167
0.550000
0.558333
0.558333
0.554167
0.550000
0.554167
0.558333
0.562500
0.554167
0.550000
0.550000
0.558333
0.562500
0.554167
0.550000
0.554167
0.562500
0.558333
0.554167
0.554167
0.554167
0.562500
0.550000
0.554167
0.550000
0.554167
0.558333
0.562500
0.554167
0.554167
0.554167
0.554167
0.558333
0.554167
0.554167
0.550000
0.558333
0.562500
0.558333
0.554167
0.554167
0.554167
0.562500
0.554167
0.554167
0.554167
0.554167
0.558333
0.562500
0.554167
0.554167
0.554167
0.566667
0.550000
0.554167
0.554167
0.558333
0.562500
0.554167
0.554167
0.558333
0.554167
0.558333
0.562500
0.554167
0.554167
0.558333
0.562500
0.554167
0.554167
0.554167
0.558333
0.558333
0.562500
0.562500
0.558333
0.554167
0.562500
0.562500
0.566667
0.558333
0.558333
0.562500
0.558333
0.566667
0.558333
0.558333
0.562500
0.562500
0.558333
0.554167
0.558333
0.558333
0.562500
0.558333
0.558333
0.554167
0.558333
0.558333
0.562500
0.558333
0.554167
0.554167
0.562500
0.566667
0.554167
0.554167
0.558333
0.558333
0.562500
0.554167
0.558333
0.558333
0.558333
0.562500
0.558333
0.554167
0.558333
0.558333
0.279167
0.329167
0.512500
0.554167
0.558333
0.566667
0.558333
0.554167
0.558333
0.562500
0.558333
0.558333
0.558333
0.562500
0.566667
0.562500
0.558333
0.562500
0.562500
0.566667
0.558333
0.558333
0.562500
0.566667
0.558333
0.562500
0.558333
0.558333
0.566667
0.558333
0.558333
0.554167
0.562500
0.566667
0.558333
0.558333
0.558333
0.562500
0.558333
0.558333
0.558333
0.562500
0.566667
0.558333
0.558333
0.562500
0.566667
0.554167
0.558333
0.562500
0.566667
0.558333
0.558333
0.558333
0.562500
0.558333
0.558333
0.558333
0.566667
0.558333
0.558333
0.558333
0.562500
0.566667
0.558333
0.558333
0.562500
0.566667
0.558333
0.558333
0.558333
0.562500
0.566667
0.558333
0.558333
0.558333
0.562500
0.558333
0.566667
0.566667
0.558333
0.558333
0.562500
0.570833
0.558333
0.558333
0.562500
0.570833
0.558333
0.562500
0.562500
0.675000
0.454167
0.562500
0.558333
0.562500
0.566667
0.558333
0.562500
0.562500
0.566667
0.562500
0.562500
0.558333
0.566667
0.570833
0.558333
0.562500
0.558333
0.566667
0.570833
0.558333
0.562500
0.558333
0.562500
0.570833
0.562500
0.562500
0.562500
0.566667
0.562500
0.562500
0.562500
0.570833
0.562500
0.562500
0.562500
0.570833
0.562500
0.562500
0.558333
0.570833
0.562500
0.558333
0.566667
0.566667
0.562500
0.562500
0.566667
0.562500
0.558333
0.562500
0.562500
0.570833
0.562500
0.562500
0.562500
0.562500
0.558333
0.562500
0.566667
0.562500
0.562500
0.566667
0.295833
0.370833
0.479167
0.575000
0.575000
0.575000
0.570833
0.575000
0.579167
0.566667
0.566667
0.570833
0.579167
0.566667
0.562500
0.570833
0.570833
0.566667
0.558333
0.566667
0.570833
0.562500
0.558333
0.562500
0.570833
0.558333
0.558333
0.562500
0.570833
0.558333
0.558333
0.562500
0.562500
0.558333
0.558333
0.558333
0.558333
0.562500
0.558333
0.554167
0.558333
0.562500
0.554167
0.554167
0.554167
0.558333
0.562500
0.554167
0.554167
0.558333
0.554167
0.562500
0.562500
0.558333
0.554167
0.558333
0.558333
0.562500
0.558333
0.558333
0.558333
0.558333
0.570833
0.554167
0.558333
0.558333
0.558333
0.562500
0.566667
0.558333
0.558333
0.562500
0.566667
0.558333
0.558333
0.558333
0.566667
0.570833
0.558333
0.558333
0.566667
0.566667
0.562500
0.558333
0.558333
0.566667
0.558333
0.558333
0.562500
0.562500
0.562500
0.558333
0.558333
0.562500
0.558333
0.566667
0.558333
0.558333
0.562500
0.558333
0.562500
0.566667
0.570833
0.562500
0.562500
0.558333
0.566667
0.570833
0.562500
0.562500
0.566667
0.566667
0.562500
0.558333
0.562500
0.562500
0.562500
0.558333
0.562500
0.558333
0.566667
0.558333
0.554167
0.562500
0.566667
0.554167
0.558333
0.558333
0.566667
0.566667
0.558333
0.558333
0.558333
0.566667
0.558333
0.554167
0.562500
0.562500
0.562500
0.558333
0.558333
0.254167
0.266667
0.300000
0.304167
0.558333
0.554167
0.558333
0.562500
0.566667
0.554167
0.558333
0.558333
0.562500
0.566667
0.558333
0.558333
0.554167
0.562500
0.566667
0.558333
0.558333
0.558333
0.562500
0.562500
0.566667
0.558333
0.558333
0.554167
0.558333
0.558333
0.570833
0.558333
0.554167
0.554167
0.562500
0.566667
0.554167
0.558333
0.562500
0.562500
0.558333
0.558333
0.695833
0.437500
0.550000
0.558333
0.558333
0.558333
0.562500
0.558333
0.554167
0.558333
0.583333
0.533333
0.304167
0.262500
0.570833
0.570833
0.545833
0.591667
0.570833
0.575000
0.566667
0.566667
0.566667
0.575000
0.562500
0.566667
0.566667
0.570833
0.562500
0.562500
0.558333
0.570833
0.570833
0.558333
0.558333
0.566667
0.566667
0.558333
0.562500
0.558333
0.562500
0.570833
0.558333
0.558333
0.562500
0.562500
0.562500
0.558333
0.558333
0.562500
0.570833
0.554167
0.554167
0.558333
0.566667
0.562500
0.554167
0.558333
0.558333
0.562500
0.558333
0.558333
0.554167
0.558333
0.566667
0.554167
0.550000
0.558333
0.566667
0.554167
0.554167
0.558333
0.566667
0.554167
0.554167
0.558333
0.562500
0.554167
0.554167
0.558333
0.558333
0.554167
0.550000
0.558333
0.562500
0.554167
0.554167
0.554167
0.566667
0.554167
0.554167
0.558333
0.562500
0.558333
0.554167
0.554167
0.562500
0.562500
0.554167
0.558333
0.558333
0.562500
0.558333
0.554167
0.558333
0.558333
0.570833
0.554167
0.558333
0.562500
0.566667
0.566667
0.562500
0.558333
0.562500
0.570833
0.554167
0.566667
0.566667
0.566667
0.562500
0.558333
0.562500
0.204167
0.358333
0.570833
0.558333
0.558333
0.562500
0.566667
0.558333
0.558333
0.562500
0.570833
0.558333
0.558333
0.558333
0.570833
0.558333
0.558333
0.562500
0.566667
0.562500
0.562500
0.562500
0.570833
0.554167
0.562500
0.562500
0.570833
0.558333
0.562500
0.558333
0.566667
0.566667
0.562500
0.558333
0.566667
0.566667
0.562500
0.558333
0.562500
0.566667
0.562500
0.558333
0.558333
0.566667
0.570833
0.558333
0.558333
0.566667
0.566667
0.558333
0.558333
0.558333
0.566667
0.566667
0.558333
0.558333
0.562500
0.566667
0.558333
0.558333
0.562500
0.570833
0.558333
0.558333
0.566667
0.570833
0.562500
0.558333
0.570833
0.570833
0.562500
0.558333
0.566667
0.570833
0.562500
0.562500
0.562500
0.562500
0.570833
0.562500
0.562500
0.562500
0.566667
0.566667
0.570833
0.562500
0.562500
0.566667
0.566667
0.566667
0.562500
0.562500
0.562500
0.566667
0.570833
0.562500
0.562500
0.562500
0.575000
0.558333
0.562500
0.562500
0.570833
0.562500
0.558333
0.558333
0.566667
0.570833
0.562500
0.562500
0.562500
0.570833
0.562500
0.562500
0.558333
0.562500
0.570833
0.562500
0.558333
0.558333
0.562500
0.608333
0.275000
0.241667
0.570833
0.566667
0.566667
0.575000
0.566667
0.570833
0.575000
0.566667
0.566667
0.570833
0.575000
0.566667
0.562500
0.570833
0.575000
0.562500
0.562500
0.566667
0.575000
0.558333
0.562500
0.562500
0.575000
0.558333
0.562500
0.562500
0.570833
0.558333
0.562500
0.562500
0.566667
0.562500
0.562500
0.562500
0.566667
0.558333
0.562500
0.562500
0.570833
0.558333
0.562500
0.566667
0.570833
0.558333
0.562500
0.562500
0.566667
0.570833
0.558333
0.562500
0.566667
0.566667
0.562500
0.558333
0.562500
0.562500
0.570833
0.558333
0.558333
0.562500
0.570833
0.562500
0.558333
0.562500
0.562500
0.566667
0.554167
0.558333
0.225000
0.337500
0.562500
0.625000
0.570833
0.266667
0.775000
0.270833
0.508333
0.308333
0.679167
0.445833
0.566667
0.554167
0.562500
0.362500
0.737500
0.558333
0.566667
0.545833
0.554167
0.529167
0.575000
0.658333
0.454167
0.570833
0.529167
0.458333
0.479167
0.541667
0.250000
0.370833
0.333333
0.341667
0.291667
0.254167
0.554167
0.558333
0.554167
0.554167
0.550000
0.566667
0.562500
0.554167
0.554167
0.558333
0.562500
0.554167
0.550000
0.558333
0.383333
0.183333
0.550000
0.554167
0.554167
0.562500
0.550000
0.554167
0.558333
0.562500
0.554167
0.554167
0.558333
0.562500
0.554167
0.558333
0.558333
0.562500
0.554167
0.554167
0.558333
0.562500
0.550000
0.558333
0.558333
0.554167
0.554167
0.554167
0.558333
0.558333
0.558333
0.554167
0.558333
0.562500
0.554167
0.554167
0.558333
0.566667
0.554167
0.554167
0.558333
0.566667
0.558333
0.554167
0.558333
0.566667
0.554167
0.558333
0.562500
0.570833
0.558333
0.558333
0.562500
0.562500
0.558333
0.562500
0.566667
0.558333
0.558333
0.558333
0.566667
0.558333
0.558333
0.562500
0.566667
0.558333
0.558333
0.562500
0.566667
0.562500
0.433333
0.662500
0.575000
0.570833
0.558333
0.562500
0.562500
0.566667
0.566667
0.562500
0.558333
0.566667
0.570833
0.558333
0.562500
0.558333
0.566667
0.558333
0.558333
0.562500
0.570833
0.562500
0.558333
0.562500
0.566667
0.562500
0.558333
0.562500
0.570833
0.558333
0.562500
0.562500
0.566667
0.562500
0.558333
0.562500
0.570833
0.562500
0.562500
0.570833
0.562500
0.562500
0.570833
0.570833
0.562500
0.566667
0.570833
0.566667
0.562500
0.570833
0.562500
0.562500
0.566667
0.570833
0.562500
0.562500
0.566667
0.566667
0.562500
0.562500
0.570833
0.562500
0.562500
0.570833
0.562500
0.558333
0.566667
0.570833
0.558333
0.562500
0.570833
0.558333
0.558333
0.566667
0.570833
0.558333
0.558333
0.566667
0.558333
0.558333
0.562500
0.570833
0.558333
0.558333
0.566667
0.562500
0.558333
0.562500
0.566667
0.566667
0.558333
0.562500
0.562500
0.566667
0.562500
0.562500
0.558333
0.566667
0.566667
0.562500
0.558333
0.562500
0.566667
