0.937500
0.933333
0.925000
0.925000
0.570833
0.220833
0.308333
0.400000
0.366667
0.304167
0.375000
0.383333
0.337500
0.325000
0.325000
0.350000
0.700000
0.520833
0.512500
0.550000
0.504167
0.512500
0.529167
0.508333
0.516667
0.525000
0.512500
0.520833
0.516667
0.520833
0.520833
0.512500
0.520833
0.520833
0.516667
0.525000
0.512500
0.520833
0.520833
0.516667
0.520833
0.512500
0.525000
0.516667
0.520833
0.520833
0.516667
0.516667
0.516667
0.525000
0.520833
0.512500
0.525000
0.512500
0.520833
0.525000
0.508333
0.525000
0.508333
0.520833
0.525000
0.508333
0.495833
0.495833
0.516667
0.516667
0.512500
0.520833
0.533333
0.508333
0.504167
0.533333
0.504167
0.495833
0.516667
0.520833
0.529167
0.504167
0.491667
0.516667
0.520833
0.529167
0.504167
0.500000
0.508333
0.516667
0.529167
0.504167
0.504167
0.495833
0.525000
0.500000
0.525000
1.158333
0.450000
0.370833
0.383333
0.358333
0.337500
0.325000
0.337500
0.358333
0.358333
0.329167
0.341667
0.358333
0.350000
0.383333
0.370833
0.391667
0.366667
0.358333
0.354167
0.345833
0.358333
0.383333
0.383333
0.375000
0.358333
0.345833
0.383333
0.691667
0.291667
1.520833
0.479167
0.370833
0.325000
0.304167
0.333333
0.391667
0.366667
0.350000
0.354167
0.345833
0.237500
0.445833
0.404167
1.416667
0.470833
0.366667
0.337500
0.325000
0.362500
0.379167
0.345833
0.337500
0.362500
0.783333
0.579167
0.487500
0.525000
0.495833
0.504167
0.516667
0.491667
0.512500
0.508333
0.500000
0.516667
0.495833
0.512500
0.512500
0.495833
0.516667
0.504167
0.504167
0.516667
0.495833
0.516667
0.391667
0.616667
0.520833
0.495833
0.516667
0.512500
0.495833
0.520833
0.500000
0.495833
0.491667
0.495833
0.512500
0.495833
0.516667
0.508333
0.495833
0.512500
0.500000
0.520833
0.516667
0.491667
0.516667
0.495833
0.520833
0.529167
0.516667
0.500000
0.495833
0.500000
0.516667
0.491667
0.512500
0.512500
0.495833
0.516667
0.487500
0.516667
0.516667
0.487500
0.520833
0.500000
0.504167
0.516667
0.483333
0.520833
0.500000
0.500000
0.512500
0.487500
0.512500
0.495833
0.500000
0.512500
0.487500
0.508333
0.500000
0.504167
0.512500
0.487500
0.512500
0.500000
0.512500
0.520833
0.483333
0.516667
0.500000
0.508333
0.525000
0.483333
0.520833
0.495833
0.512500
0.525000
0.483333
0.520833
0.495833
0.508333
0.512500
0.487500
0.516667
0.491667
0.500000
0.516667
0.487500
0.512500
0.491667
0.504167
0.512500
0.487500
0.512500
0.487500
0.508333
0.504167
0.495833
0.512500
0.487500
0.508333
0.500000
0.504167
0.516667
0.487500
0.512500
0.491667
0.512500
0.512500
0.487500
0.512500
0.370833
0.625000
0.504167
0.495833
0.508333
0.491667
0.500000
0.500000
0.500000
0.500000
0.495833
0.504167
0.495833
0.504167
0.500000
0.495833
0.500000
0.500000
0.500000
0.500000
0.495833
0.504167
0.495833
0.504167
0.500000
0.500000
0.500000
0.495833
0.504167
0.500000
0.500000
0.500000
0.495833
0.504167
0.495833
0.504167
0.500000
0.500000
0.495833
0.504167
0.500000
0.500000
0.500000
0.500000
0.504167
0.500000
0.500000
0.500000
0.495833
0.504167
0.500000
0.500000
0.500000
0.500000
0.500000
0.500000
0.504167
0.495833
0.500000
0.500000
0.500000
0.504167
0.500000
0.504167
0.495833
0.500000
0.500000
0.500000
0.500000
0.500000
0.500000
0.500000
0.500000
0.500000
0.383333
0.612500
0.504167
0.500000
0.500000
0.500000
0.495833
0.504167
0.500000
0.500000
0.500000
0.500000
0.500000
0.495833
0.504167
0.495833
0.500000
0.500000
0.500000
0.500000
0.500000
0.500000
0.495833
0.500000
0.500000
0.504167
0.495833
0.500000
0.500000
0.500000
0.500000
0.500000
0.495833
0.504167
0.495833
0.504167
0.495833
0.500000
0.500000
0.495833
0.504167
0.495833
0.495833
0.504167
0.495833
0.500000
0.495833
0.500000
0.500000
0.500000
0.500000
0.495833
0.500000
0.500000
0.495833
0.504167
0.495833
0.500000
0.495833
0.504167
0.500000
0.500000
0.500000
0.495833
0.500000
0.495833
0.504167
0.500000
0.495833
0.500000
0.500000
0.504167
0.495833
0.500000
0.500000
0.500000
0.500000
0.504167
0.500000
0.495833
0.500000
0.500000
0.500000
0.500000
0.500000
0.495833
0.504167
0.495833
0.500000
0.500000
0.500000
0.500000
0.500000
0.500000
0.500000
0.495833
0.504167
0.495833
0.504167
0.500000
0.495833
0.500000
0.500000
0.504167
0.495833
0.500000
0.495833
0.504167
0.504167
0.495833
0.504167
0.495833
0.500000
0.495833
0.500000
0.500000
0.500000
0.500000
0.500000
0.500000
0.495833
0.500000
0.500000
0.500000
0.504167
0.495833
0.500000
0.500000
0.500000
0.504167
0.495833
0.500000
0.500000
0.500000
0.500000
0.495833
0.500000
0.500000
0.500000
0.504167
0.495833
0.500000
0.500000
0.500000
0.504167
0.491667
0.504167
0.495833
0.504167
0.504167
0.495833
0.504167
0.491667
0.504167
0.500000
0.500000
0.504167
0.491667
0.508333
0.500000
0.500000
0.500000
0.495833
0.508333
0.495833
0.504167
0.495833
0.495833
0.508333
0.495833
0.504167
0.495833
0.500000
0.504167
0.495833
0.508333
0.491667
0.500000
0.508333
0.495833
0.508333
0.491667
0.500000
0.504167
0.495833
0.508333
0.491667
0.504167
0.495833
0.504167
0.504167
0.491667
0.504167
0.495833
0.504167
0.504167
0.491667
0.508333
0.491667
0.504167
0.500000
0.500000
0.504167
0.375000
0.625000
0.495833
0.504167
0.500000
0.491667
0.512500
0.483333
0.512500
0.491667
0.504167
0.504167
0.491667
0.508333
0.491667
0.504167
0.500000
0.495833
0.504167
0.491667
0.504167
0.500000
0.500000
0.504167
0.491667
0.504167
0.495833
0.504167
0.495833
0.500000
0.504167
0.495833
0.512500
0.487500
0.504167
0.500000
0.500000
0.508333
0.487500
0.508333
0.495833
0.504167
0.504167
0.491667
0.504167
0.495833
0.504167
0.500000
0.495833
0.504167
0.491667
0.508333
0.495833
0.500000
0.504167
0.495833
0.504167
0.495833
0.504167
0.495833
0.500000
0.508333
0.491667
0.508333
0.379167
0.616667
0.504167
0.491667
0.512500
0.491667
0.500000
0.508333
0.491667
0.512500
0.487500
0.508333
0.500000
0.500000
0.512500
0.483333
0.512500
0.491667
0.504167
0.508333
0.487500
0.508333
0.491667
0.508333
0.500000
0.495833
0.508333
0.487500
0.512500
0.495833
0.500000
0.504167
0.487500
0.512500
0.491667
0.508333
0.500000
0.491667
0.512500
0.483333
0.516667
0.487500
0.504167
0.504167
0.491667
0.516667
0.362500
0.629167
0.500000
0.495833
0.516667
0.479167
0.512500
0.491667
0.504167
0.508333
0.366667
0.633333
0.487500
0.508333
0.508333
0.487500
0.516667
0.362500
0.637500
0.508333
0.483333
0.520833
0.358333
0.633333
0.500000
0.491667
0.516667
0.358333
0.629167
0.500000
0.495833
0.512500
0.479167
0.512500
0.495833
0.500000
0.508333
0.483333
0.512500
0.487500
0.508333
0.504167
0.487500
0.512500
0.483333
0.512500
0.500000
0.495833
0.508333
0.483333
0.512500
0.495833
0.500000
0.504167
0.487500
0.512500
0.491667
0.504167
0.500000
0.491667
0.512500
0.491667
0.512500
0.370833
0.616667
0.508333
0.491667
0.508333
0.487500
0.508333
0.500000
0.495833
0.508333
0.483333
0.516667
0.487500
0.508333
0.500000
0.491667
0.512500
0.483333
0.516667
0.491667
0.504167
0.504167
0.491667
0.516667
0.479167
0.512500
0.495833
0.500000
0.516667
0.358333
0.633333
0.491667
0.504167
0.512500
0.479167
0.516667
0.487500
0.508333
0.508333
0.483333
0.512500
0.487500
0.508333
0.504167
0.491667
0.512500
0.483333
0.512500
0.500000
0.495833
0.508333
0.483333
0.516667
0.491667
0.504167
0.504167
0.483333
0.516667
0.487500
0.508333
0.500000
0.491667
0.512500
0.483333
0.512500
0.491667
0.500000
0.508333
0.487500
0.512500
0.487500
0.504167
0.508333
0.487500
0.512500
0.362500
0.633333
0.495833
0.495833
0.508333
0.483333
0.512500
0.487500
0.508333
0.500000
0.491667
0.508333
0.487500
0.508333
0.495833
0.495833
0.504167
0.491667
0.516667
0.366667
0.629167
0.491667
0.500000
0.508333
0.483333
0.516667
0.483333
0.504167
0.508333
0.487500
0.516667
0.479167
0.508333
0.500000
0.495833
0.520833
0.354167
0.633333
0.500000
0.491667
0.529167
0.345833
0.637500
0.512500
0.479167
0.533333
0.345833
0.637500
1.325000
0.391667
1.495833
0.979167
0.958333
0.966667
0.958333
0.945833
0.950000
0.945833
0.941667
0.937500
0.933333
0.933333
0.933333
0.925000
0.929167
0.925000
0.466667
0.175000
0.616667
0.291667
0.325000
0.325000
1.325000
0.462500
1.283333
0.470833
0.333333
0.604167
0.304167
0.316667
0.341667
0.329167
0.295833
0.308333
0.354167
0.375000
0.337500
0.304167
0.312500
0.345833
0.366667
0.370833
0.358333
0.345833
0.345833
0.329167
0.320833
0.383333
0.379167
0.358333
0.358333
0.350000
0.337500
0.333333
0.387500
0.383333
0.350000
0.325000
0.329167
0.404167
0.387500
0.358333
0.350000
0.350000
1.091667
0.333333
0.358333
0.395833
0.475000
0.383333
0.429167
0.366667
0.337500
0.387500
0.362500
0.341667
0.358333
0.370833
0.370833
0.345833
0.345833
0.354167
0.354167
0.366667
0.370833
0.362500
0.366667
0.408333
0.391667
0.408333
0.383333
0.345833
0.358333
0.362500
0.358333
0.354167
0.358333
0.450000
1.391667
0.358333
1.300000
0.445833
0.350000
0.325000
0.329167
0.358333
0.345833
0.345833
0.333333
0.366667
0.354167
0.375000
0.383333
0.366667
0.358333
0.345833
0.345833
0.358333
0.387500
0.387500
0.362500
0.345833
0.370833
0.704167
0.287500
0.366667
0.358333
0.341667
0.341667
0.329167
1.516667
0.345833
0.379167
0.370833
0.358333
0.370833
0.366667
0.425000
1.470833
1.279167
0.445833
0.370833
1.612500
0.454167
0.345833
1.629167
1.087500
0.966667
0.929167
0.937500
0.916667
0.933333
0.912500
0.925000
0.904167
0.920833
0.904167
0.912500
0.904167
0.912500
0.900000
0.904167
0.900000
0.904167
0.900000
0.904167
0.900000
0.900000
0.904167
0.354167
0.291667
0.370833
0.720833
0.566667
1.287500
0.466667
0.341667
0.320833
1.800000
0.470833
0.345833
0.333333
0.750000
0.729167
0.295833
0.333333
0.387500
0.387500
0.370833
0.358333
0.325000
0.345833
0.362500
0.362500
0.350000
0.358333
0.366667
0.704167
0.283333
0.350000
0.358333
0.379167
0.366667
0.337500
0.341667
0.370833
0.412500
0.350000
0.329167
0.375000
0.362500
0.350000
0.358333
0.366667
0.250000
0.462500
0.404167
0.412500
0.370833
0.354167
0.366667
0.400000
0.408333
0.395833
0.370833
0.345833
0.366667
0.383333
0.375000
0.387500
0.337500
0.337500
0.387500
0.412500
0.395833
0.362500
0.366667
0.337500
0.370833
0.379167
0.375000
0.337500
0.400000
0.633333
0.825000
0.329167
1.429167
0.450000
0.350000
0.325000
0.304167
0.316667
1.016667
0.333333
0.370833
0.391667
0.375000
0.379167
0.350000
0.345833
0.387500
0.383333
0.370833
0.370833
0.358333
1.487500
0.458333
0.400000
0.362500
0.391667
0.383333
0.350000
0.358333
0.375000
0.379167
0.383333
0.383333
0.366667
0.337500
0.366667
0.387500
0.391667
0.404167
0.400000
0.387500
0.358333
0.387500
0.404167
0.579167
0.533333
0.320833
0.391667
0.395833
0.383333
0.379167
0.350000
0.354167
0.387500
0.370833
0.333333
0.362500
0.425000
0.420833
0.445833
0.370833
0.333333
0.325000
0.383333
0.366667
0.387500
0.383333
0.450000
0.395833
0.395833
0.391667
0.379167
0.370833
0.358333
0.408333
0.379167
0.370833
0.345833
0.345833
0.350000
0.366667
0.375000
0.350000
0.337500
0.370833
0.366667
0.358333
0.358333
0.445833
0.587500
0.283333
0.416667
0.370833
0.354167
0.362500
0.366667
0.391667
0.370833
0.387500
0.379167
0.366667
0.404167
0.345833
0.345833
0.395833
0.354167
0.316667
0.366667
0.391667
0.366667
0.366667
0.370833
0.362500
0.366667
0.345833
0.354167
0.379167
0.412500
0.400000
0.354167
0.237500
0.533333
0.391667
0.362500
0.325000
0.358333
0.350000
0.312500
0.425000
0.404167
0.350000
0.391667
0.433333
0.358333
0.333333
0.345833
0.379167
0.366667
0.391667
0.404167
0.383333
0.379167
0.358333
0.466667
0.425000
0.366667
0.316667
0.329167
0.350000
0.379167
0.375000
0.354167
0.350000
0.370833
0.350000
0.345833
0.350000
0.350000
0.329167
0.375000
0.370833
0.354167
0.425000
0.383333
0.337500
0.354167
0.366667
0.358333
0.366667
0.362500
0.383333
0.379167
0.350000
0.379167
0.387500
0.383333
0.366667
0.362500
0.379167
0.391667
0.383333
0.420833
0.387500
0.395833
0.358333
