0.512500
0.512500
0.375000
0.254167
0.629167
0.095833
0.325000
0.204167
0.329167
0.750000
0.270833
0.420833
0.575000
0.579167
0.695833
0.291667
0.416667
0.208333
0.104167
0.354167
0.375000
0.445833
0.083333
0.283333
0.533333
0.195833
0.425000
0.429167
0.425000
0.604167
0.258333
0.425000
0.112500
0.725000
0.520833
0.187500
0.591667
0.166667
0.320833
0.370833
0.370833
0.383333
0.512500
0.416667
0.429167
0.425000
0.425000
0.420833
0.425000
0.420833
0.508333
0.329167
0.404167
0.425000
0.420833
0.420833
0.433333
0.625000
0.250000
0.437500
0.433333
0.179167
0.254167
0.429167
0.170833
0.266667
0.433333
0.170833
0.245833
0.450000
0.350000
0.212500
0.416667
0.683333
0.679167
0.283333
0.512500
0.475000
0.325000
0.170833
0.266667
0.316667
0.312500
0.287500
0.404167
0.420833
0.404167
0.495833
0.429167
0.208333
0.420833
0.662500
0.025000
0.250000
0.337500
0.641667
0.570833
0.379167
0.279167
0.341667
0.254167
0.391667
0.270833
0.250000
0.629167
0.320833
0.437500
0.325000
0.308333
0.450000
0.925000
0.150000
0.433333
0.250000
0.908333
0.245833
0.300000
0.437500
0.437500
0.433333
0.433333
0.441667
0.387500
0.483333
0.420833
0.433333
0.429167
0.433333
0.425000
0.425000
0.329167
0.412500
0.545833
0.495833
0.295833
0.662500
0.245833
0.066667
0.216667
0.575000
0.445833
0.600000
0.245833
0.433333
0.833333
0.470833
0.379167
0.195833
0.462500
0.308333
0.725000
0.458333
0.650000
0.779167
0.362500
0.283333
0.725000
0.658333
0.308333
0.720833
0.395833
0.191667
0.383333
0.554167
0.745833
0.100000
0.325000
0.437500
0.183333
0.516667
0.250000
0.416667
0.325000
0.600000
0.295833
0.420833
0.545833
0.625000
0.620833
0.383333
0.729167
0.495833
1.091667
0.154167
0.929167
0.058333
0.245833
0.320833
0.175000
0.666667
0.383333
0.254167
0.558333
0.420833
0.429167
0.616667
0.241667
0.666667
0.387500
0.308333
0.370833
0.416667
0.429167
0.320833
0.920833
0.220833
0.404167
0.291667
0.716667
0.329167
0.316667
0.195833
0.400000
0.345833
0.237500
0.641667
0.254167
0.429167
0.270833
0.279167
0.395833
0.487500
0.425000
0.437500
0.095833
0.658333
0.733333
0.491667
0.275000
0.400000
0.400000
0.300000
0.383333
0.566667
0.416667
0.625000
0.195833
0.416667
0.554167
0.495833
0.483333
0.645833
0.170833
0.679167
0.316667
0.550000
0.670833
0.620833
0.841667
0.245833
0.416667
0.237500
0.533333
0.266667
0.487500
0.179167
0.387500
0.370833
0.370833
0.433333
0.429167
0.141667
0.366667
0.350000
0.400000
0.383333
0.520833
0.429167
0.275000
0.570833
0.966667
0.300000
0.758333
0.954167
0.579167
0.279167
0.370833
0.475000
0.420833
0.408333
0.625000
0.779167
0.508333
0.554167
0.520833
0.300000
0.562500
0.212500
0.504167
0.462500
0.158333
0.079167
0.708333
0.475000
0.495833
0.845833
0.658333
0.508333
0.541667
0.850000
0.487500
0.487500
1.008333
0.129167
0.300000
0.395833
0.387500
0.608333
0.566667
0.183333
0.537500
0.520833
0.308333
0.383333
0.483333
0.466667
0.454167
0.662500
0.991667
0.416667
0.708333
0.366667
1.316667
1.279167
0.829167
0.616667
0.225000
0.825000
0.433333
0.412500
0.341667
0.300000
0.483333
0.658333
0.262500
0.754167
0.858333
0.616667
0.191667
0.475000
0.541667
0.900000
0.254167
0.454167
0.312500
0.887500
0.333333
0.433333
0.400000
0.545833
0.416667
0.854167
0.425000
0.308333
0.695833
0.312500
0.362500
0.358333
0.854167
0.183333
0.712500
0.766667
0.204167
0.525000
0.679167
1.112500
0.395833
0.204167
0.487500
0.320833
0.229167
0.583333
0.729167
0.404167
0.262500
0.595833
1.125000
0.325000
1.125000
0.266667
0.433333
0.625000
0.212500
0.241667
0.483333
1.208333
0.433333
0.483333
0.800000
0.295833
1.045833
0.691667
0.491667
0.579167
0.395833
0.425000
0.262500
0.612500
1.108333
0.770833
1.100000
0.695833
1.158333
1.050000
0.362500
0.445833
0.408333
0.150000
1.070833
0.937500
0.383333
0.462500
0.737500
0.954167
0.495833
0.175000
0.320833
0.129167
0.404167
0.562500
0.633333
1.329167
0.912500
0.941667
1.395833
1.362500
0.450000
0.445833
0.891667
0.883333
0.695833
0.566667
0.508333
0.437500
0.354167
0.312500
0.225000
0.687500
0.408333
0.600000
0.912500
0.883333
0.862500
0.870833
0.950000
0.187500
0.575000
0.666667
0.250000
0.287500
0.129167
0.558333
0.929167
0.791667
0.666667
0.566667
0.570833
0.408333
0.254167
0.512500
0.875000
0.870833
0.441667
0.487500
0.825000
0.495833
0.387500
0.300000
0.737500
0.554167
0.779167
0.270833
0.433333
0.387500
0.645833
0.629167
0.429167
0.491667
0.408333
0.304167
0.245833
0.375000
0.454167
0.666667
0.783333
0.350000
0.450000
0.604167
0.416667
0.479167
0.541667
0.583333
0.275000
0.370833
0.408333
0.262500
0.875000
0.629167
1.254167
0.404167
1.116667
1.287500
0.737500
0.383333
0.520833
0.900000
0.658333
1.091667
0.416667
0.437500
0.700000
0.904167
0.433333
0.441667
0.441667
0.879167
0.583333
0.766667
0.891667
1.216667
1.195833
1.570833
1.304167
0.441667
0.516667
0.241667
0.541667
0.345833
0.695833
0.691667
0.420833
0.437500
0.495833
0.266667
0.741667
0.337500
0.762500
0.437500
0.695833
1.062500
1.470833
0.270833
0.854167
1.308333
1.283333
1.250000
0.475000
0.429167
0.241667
0.383333
0.658333
0.291667
0.937500
0.845833
0.533333
0.608333
0.333333
0.979167
0.712500
0.300000
0.566667
0.870833
1.258333
1.354167
1.354167
0.366667
0.925000
0.800000
1.287500
1.045833
0.691667
0.425000
0.445833
0.658333
0.112500
0.512500
0.470833
0.433333
0.250000
0.179167
0.454167
0.450000
0.666667
0.408333
0.695833
0.429167
0.325000
0.729167
1.145833
0.866667
1.212500
0.550000
0.258333
0.800000
0.275000
0.170833
1.037500
0.566667
0.429167
0.433333
0.454167
0.454167
0.366667
1.133333
0.804167
0.320833
0.437500
0.437500
0.433333
0.875000
0.891667
1.304167
1.300000
1.295833
0.937500
0.416667
0.379167
0.441667
0.308333
0.345833
0.412500
0.683333
0.795833
0.500000
0.458333
0.433333
0.666667
0.787500
0.337500
0.350000
0.900000
0.725000
0.604167
1.304167
1.300000
0.841667
0.829167
0.529167
1.508333
1.316667
0.375000
0.283333
0.437500
0.441667
0.162500
0.437500
0.279167
0.437500
0.737500
0.575000
0.504167
0.558333
0.808333
0.441667
0.725000
0.045833
0.616667
0.262500
0.525000
0.316667
0.487500
0.370833
1.112500
0.895833
0.695833
0.425000
0.858333
0.554167
0.316667
0.670833
0.625000
0.433333
0.425000
0.225000
0.633333
0.450000
0.395833
0.891667
0.683333
0.366667
0.295833
1.262500
0.875000
0.866667
0.591667
0.270833
0.437500
0.625000
0.250000
0.854167
0.733333
0.150000
0.450000
0.433333
0.429167
0.570833
0.575000
0.229167
1.037500
0.208333
0.433333
0.654167
0.666667
0.437500
0.879167
0.125000
0.754167
0.950000
0.795833
1.504167
0.295833
0.841667
0.287500
0.862500
0.708333
1.212500
1.275000
0.533333
0.375000
1.379167
0.375000
0.566667
0.758333
0.266667
0.704167
1.100000
1.137500
0.445833
1.195833
1.137500
0.995833
0.708333
0.650000
0.179167
0.645833
0.250000
1.270833
0.645833
1.087500
0.504167
0.600000
0.712500
0.262500
0.433333
0.291667
1.187500
0.462500
0.883333
0.704167
0.520833
0.970833
0.425000
0.266667
0.958333
0.345833
1.291667
0.908333
1.291667
0.416667
0.437500
0.508333
0.383333
0.745833
0.683333
0.316667
0.862500
0.433333
0.862500
1.291667
1.270833
1.279167
0.691667
0.975000
0.116667
0.487500
0.387500
0.283333
0.554167
0.654167
0.591667
0.395833
0.316667
0.408333
0.500000
0.525000
0.945833
0.658333
0.425000
0.420833
0.387500
0.900000
0.145833
0.408333
0.854167
0.112500
0.779167
0.254167
0.337500
0.425000
0.229167
0.283333
0.308333
0.541667
0.183333
1.112500
0.529167
0.320833
0.887500
0.383333
0.591667
0.270833
1.250000
1.270833
0.825000
0.287500
0.941667
0.208333
0.591667
0.050000
0.425000
0.470833
0.358333
0.412500
0.833333
0.837500
0.825000
0.604167
0.625000
1.208333
0.362500
0.441667
0.458333
0.412500
0.616667
0.204167
0.300000
0.408333
0.729167
0.383333
0.262500
0.283333
0.441667
1.225000
0.650000
0.716667
0.829167
0.733333
0.504167
0.416667
0.412500
1.337500
0.308333
1.241667
0.412500
0.679167
0.970833
0.833333
0.425000
0.429167
0.425000
0.325000
1.158333
0.204167
0.208333
0.425000
0.641667
0.275000
0.766667
0.187500
0.770833
0.550000
0.587500
0.258333
0.425000
0.479167
0.366667
0.833333
0.337500
0.670833
0.316667
0.320833
0.537500
0.608333
0.470833
0.412500
0.633333
0.520833
0.558333
0.525000
0.420833
0.845833
0.829167
1.245833
1.237500
1.233333
0.412500
1.245833
0.412500
0.429167
1.608333
1.266667
0.604167
0.879167
0.629167
0.379167
0.283333
0.633333
0.583333
1.454167
0.937500
1.308333
0.875000
1.300000
0.445833
0.437500
1.295833
0.433333
1.704167
1.862500
1.170833
0.866667
0.433333
0.841667
0.858333
0.425000
0.425000
0.412500
0.275000
0.408333
1.054167
0.420833
0.845833
0.458333
0.800000
0.491667
0.841667
0.475000
0.262500
0.175000
0.075000
0.550000
0.983333
0.491667
0.429167
0.658333
0.258333
0.550000
0.491667
0.229167
0.858333
0.858333
1.037500
0.841667
0.300000
0.404167
0.483333
0.387500
0.437500
0.204167
0.683333
0.329167
0.504167
0.716667
0.229167
0.441667
0.433333
0.437500
0.429167
0.437500
0.433333
0.437500
0.437500
0.529167
0.200000
0.550000
0.537500
0.333333
0.270833
0.604167
0.433333
0.483333
0.875000
0.366667
0.441667
0.333333
0.104167
0.529167
0.520833
0.316667
0.516667
0.287500
0.545833
0.366667
0.687500
0.316667
0.262500
0.108333
0.383333
0.541667
0.820833
0.500000
0.495833
1.045833
0.933333
0.883333
0.237500
0.258333
0.441667
0.820833
0.445833
0.508333
0.720833
1.395833
0.425000
0.475000
0.412500
0.583333
0.487500
0.079167
0.812500
0.658333
0.916667
0.329167
0.545833
0.441667
0.850000
0.437500
1.300000
1.295833
1.045833
1.104167
0.383333
0.279167
0.400000
0.679167
0.404167
0.470833
0.479167
0.350000
0.220833
0.254167
0.433333
0.445833
0.695833
0.695833
0.329167
1.029167
0.320833
0.808333
1.029167
1.104167
1.270833
0.420833
1.695833
1.691667
0.416667
0.420833
0.425000
0.200000
0.650000
0.741667
0.533333
0.433333
0.354167
0.462500
0.466667
0.245833
0.750000
0.291667
0.304167
0.562500
0.612500
0.570833
0.250000
0.691667
0.487500
0.654167
0.329167
0.345833
0.316667
0.425000
0.604167
0.504167
0.875000
0.979167
0.433333
0.312500
0.641667
0.720833
1.104167
1.029167
1.266667
1.625000
1.350000
0.420833
0.520833
0.750000
0.841667
0.416667
0.187500
1.075000
0.416667
0.429167
0.204167
0.654167
0.562500
0.162500
0.841667
0.525000
0.850000
1.020833
0.645833
0.637500
