0.558333
0.545833
0.545833
0.554167
0.550000
0.541667
0.425000
0.670833
0.541667
0.558333
0.541667
0.541667
0.554167
0.541667
0.541667
0.554167
0.541667
0.550000
0.554167
0.554167
0.541667
0.554167
0.554167
0.541667
0.554167
0.545833
0.545833
0.558333
0.545833
0.545833
0.558333
0.541667
0.562500
0.545833
0.562500
0.541667
0.545833
0.554167
0.545833
0.475000
0.620833
0.550000
0.550000
0.541667
0.550000
0.550000
0.550000
0.650000
0.441667
0.541667
0.550000
0.550000
0.541667
0.550000
0.554167
0.541667
0.545833
0.550000
0.550000
0.541667
0.554167
0.541667
0.545833
0.550000
0.541667
0.541667
0.554167
0.545833
0.541667
0.554167
0.545833
0.550000
0.420833
0.679167
0.545833
0.550000
0.550000
0.545833
0.545833
0.554167
0.545833
0.541667
0.558333
0.550000
0.545833
0.545833
0.554167
0.541667
0.545833
0.554167
0.541667
0.541667
0.545833
0.541667
0.545833
0.550000
0.537500
0.541667
0.545833
0.550000
0.537500
0.545833
0.554167
0.537500
0.545833
0.554167
0.541667
0.545833
0.558333
0.545833
0.545833
0.554167
0.545833
0.541667
0.429167
0.675000
0.545833
0.554167
0.541667
0.550000
0.554167
0.537500
0.554167
0.550000
0.537500
0.558333
0.554167
0.550000
0.545833
0.558333
0.558333
0.541667
0.558333
0.545833
0.550000
0.550000
0.545833
0.558333
0.554167
0.541667
0.554167
0.554167
0.541667
0.541667
0.554167
0.545833
0.545833
0.554167
0.541667
0.554167
0.550000
0.554167
0.541667
0.554167
0.545833
0.541667
0.554167
0.541667
0.541667
0.545833
0.550000
0.537500
0.550000
0.545833
0.541667
0.541667
0.554167
0.545833
0.537500
0.550000
0.545833
0.537500
0.545833
0.550000
0.537500
0.550000
0.545833
0.541667
0.541667
0.554167
0.541667
0.420833
0.670833
0.554167
0.537500
0.554167
0.541667
0.541667
0.554167
0.537500
0.545833
0.550000
0.537500
0.541667
0.466667
0.625000
0.541667
0.550000
0.545833
0.541667
0.550000
0.537500
0.550000
0.537500
0.550000
0.545833
0.537500
0.545833
0.537500
0.554167
0.550000
0.537500
0.550000
0.550000
0.537500
0.550000
0.545833
0.537500
0.550000
0.545833
0.537500
0.550000
0.537500
0.545833
0.541667
0.637500
0.441667
0.550000
0.529167
0.545833
0.550000
0.537500
0.541667
0.533333
0.529167
0.541667
0.550000
0.537500
0.541667
0.537500
0.525000
0.554167
0.533333
0.537500
0.541667
0.537500
0.545833
0.541667
0.537500
0.537500
0.550000
0.545833
0.545833
0.533333
0.537500
0.550000
0.541667
0.558333
0.541667
0.537500
0.537500
0.550000
0.550000
0.537500
0.554167
0.537500
0.554167
0.537500
0.550000
0.541667
0.550000
0.545833
0.558333
0.537500
0.537500
0.562500
0.541667
0.541667
0.550000
0.537500
0.550000
0.541667
0.537500
0.545833
0.550000
0.537500
0.550000
0.541667
0.541667
0.550000
0.537500
0.550000
0.545833
0.537500
0.550000
0.545833
0.537500
0.550000
0.550000
0.550000
0.541667
0.558333
0.541667
0.554167
0.554167
0.541667
0.554167
0.550000
0.550000
0.550000
0.550000
0.312500
0.775000
0.550000
0.558333
0.545833
0.554167
0.550000
0.554167
0.554167
0.550000
0.558333
0.554167
0.550000
0.558333
0.545833
0.562500
0.554167
0.550000
0.570833
0.550000
0.566667
0.562500
0.554167
0.670833
0.458333
0.566667
0.566667
0.554167
0.570833
0.558333
0.566667
0.570833
0.558333
0.570833
0.566667
0.562500
0.575000
0.562500
0.566667
0.575000
0.562500
0.583333
0.566667
0.558333
0.566667
0.570833
0.558333
0.575000
0.570833
0.562500
0.575000
0.566667
0.566667
0.579167
0.570833
0.575000
0.570833
0.562500
0.579167
0.579167
0.579167
0.566667
0.583333
0.562500
0.570833
0.579167
0.562500
0.570833
0.579167
0.558333
0.570833
0.575000
0.562500
0.575000
0.566667
0.566667
0.570833
0.579167
0.558333
0.570833
0.579167
0.554167
0.575000
0.575000
0.554167
0.570833
0.566667
0.558333
0.570833
0.562500
0.558333
0.570833
0.562500
0.566667
0.562500
0.570833
0.554167
0.562500
0.570833
0.554167
0.562500
0.570833
0.554167
0.558333
0.566667
0.554167
0.566667
0.566667
0.554167
0.558333
0.566667
0.554167
0.562500
0.566667
0.554167
0.562500
0.562500
0.554167
0.570833
0.550000
0.570833
0.562500
0.550000
0.566667
0.566667
0.550000
0.566667
0.562500
0.554167
0.562500
0.558333
0.554167
0.562500
0.562500
0.558333
0.554167
0.562500
0.558333
0.554167
0.562500
0.554167
0.550000
0.562500
0.554167
0.558333
0.558333
0.545833
0.545833
0.554167
0.541667
0.541667
0.550000
0.554167
0.541667
0.550000
0.554167
0.541667
0.545833
0.550000
0.545833
0.545833
0.550000
0.554167
0.541667
0.558333
0.545833
0.541667
0.558333
0.545833
0.545833
0.558333
0.545833
0.550000
0.562500
0.558333
0.545833
0.554167
0.558333
0.416667
0.679167
0.566667
0.550000
0.558333
0.566667
0.550000
0.554167
0.566667
0.562500
0.554167
0.562500
0.566667
0.554167
0.562500
0.566667
0.554167
0.566667
0.566667
0.554167
0.562500
0.575000
0.566667
0.554167
0.575000
0.562500
0.554167
0.570833
0.566667
0.554167
0.562500
0.570833
0.554167
0.562500
0.554167
0.558333
0.554167
0.562500
0.541667
0.562500
0.554167
0.420833
0.679167
0.554167
0.550000
0.562500
0.545833
0.545833
0.554167
0.554167
0.541667
0.479167
0.629167
0.550000
0.554167
0.558333
0.545833
0.554167
0.562500
0.416667
0.679167
0.566667
0.545833
0.566667
0.550000
0.554167
0.541667
0.454167
0.654167
0.545833
0.562500
0.541667
0.550000
0.429167
0.662500
0.554167
0.550000
0.537500
0.550000
0.545833
0.545833
0.537500
0.558333
0.545833
0.541667
0.558333
0.541667
0.554167
0.554167
0.545833
0.554167
0.558333
0.541667
0.558333
0.554167
0.554167
0.550000
0.562500
0.545833
0.558333
0.558333
0.545833
0.554167
0.558333
0.545833
0.554167
0.558333
0.545833
0.550000
0.562500
0.550000
0.554167
0.554167
0.545833
0.558333
0.554167
0.558333
0.541667
0.562500
0.458333
0.633333
0.562500
0.554167
0.541667
0.554167
0.554167
0.545833
0.554167
0.554167
0.545833
0.558333
0.554167
0.554167
0.554167
0.566667
0.545833
0.558333
0.562500
0.545833
0.550000
0.562500
0.558333
0.545833
0.562500
0.562500
0.558333
0.554167
0.566667
0.550000
0.554167
0.562500
0.550000
0.558333
0.562500
0.545833
0.558333
0.554167
0.554167
0.550000
0.558333
0.545833
0.554167
0.554167
0.541667
0.554167
0.554167
0.541667
0.558333
0.550000
0.550000
0.554167
0.558333
0.541667
0.558333
0.558333
0.541667
0.554167
0.558333
0.541667
0.558333
0.554167
0.550000
0.550000
0.566667
0.545833
0.550000
0.558333
0.541667
0.550000
0.558333
0.541667
0.545833
0.554167
0.545833
0.550000
0.545833
0.554167
0.545833
0.545833
0.558333
0.545833
0.545833
0.558333
0.550000
0.545833
0.554167
0.554167
0.550000
0.550000
0.558333
0.545833
0.554167
0.558333
0.545833
0.550000
0.562500
0.541667
0.554167
0.562500
0.558333
0.541667
0.558333
0.554167
0.545833
0.558333
0.554167
0.541667
0.558333
0.554167
0.541667
0.558333
0.554167
0.550000
0.550000
0.562500
0.550000
0.550000
0.558333
0.550000
0.545833
0.562500
0.550000
0.550000
0.562500
0.550000
0.550000
0.562500
0.554167
0.550000
0.558333
0.562500
0.554167
0.554167
0.566667
0.554167
0.554167
0.566667
0.550000
0.562500
0.420833
0.687500
0.562500
0.558333
0.550000
0.558333
0.562500
0.550000
0.558333
0.558333
0.554167
0.550000
0.562500
0.545833
0.554167
0.562500
0.545833
0.554167
0.558333
0.545833
0.550000
0.562500
0.541667
0.550000
0.558333
0.537500
0.416667
0.687500
0.541667
0.554167
0.554167
0.537500
0.550000
0.558333
0.541667
0.545833
0.558333
0.554167
0.541667
0.554167
0.554167
0.545833
0.554167
0.558333
0.545833
0.554167
0.558333
0.558333
0.545833
0.562500
0.554167
0.545833
0.558333
0.558333
0.545833
0.558333
0.550000
0.545833
0.558333
0.545833
0.545833
0.550000
0.525000
0.570833
0.537500
0.554167
0.541667
0.537500
0.550000
0.533333
0.541667
0.545833
0.537500
0.541667
0.550000
0.533333
0.550000
0.541667
0.533333
0.545833
0.541667
0.545833
0.533333
0.550000
0.537500
0.537500
0.450000
0.637500
0.545833
0.545833
0.537500
0.550000
0.550000
0.537500
0.545833
0.550000
0.537500
0.541667
0.550000
0.541667
0.537500
0.545833
0.545833
0.537500
0.545833
0.554167
0.533333
0.550000
0.550000
0.541667
0.550000
0.545833
0.550000
0.550000
0.537500
0.554167
0.541667
0.554167
0.541667
0.541667
0.545833
0.554167
0.541667
0.541667
0.550000
0.541667
0.550000
0.550000
0.537500
0.550000
0.545833
0.550000
0.550000
0.545833
0.541667
0.562500
0.537500
0.545833
0.545833
0.545833
0.550000
0.545833
0.537500
0.545833
0.545833
0.545833
0.525000
0.541667
0.533333
0.554167
0.541667
0.537500
0.541667
0.545833
0.541667
0.533333
0.550000
0.533333
0.633333
0.454167
0.533333
0.541667
0.533333
0.550000
0.533333
0.541667
0.545833
0.545833
0.529167
0.554167
0.533333
0.537500
0.545833
0.541667
0.537500
0.545833
0.545833
0.537500
0.550000
0.541667
0.550000
0.550000
0.541667
0.554167
0.541667
0.554167
0.550000
0.541667
0.554167
0.554167
0.541667
0.554167
0.550000
0.545833
0.558333
0.545833
0.554167
0.550000
0.550000
0.558333
0.545833
0.550000
0.558333
0.541667
0.554167
0.554167
0.545833
0.554167
0.554167
0.541667
0.558333
0.545833
0.550000
0.558333
0.545833
0.554167
0.558333
0.541667
0.554167
0.550000
0.545833
0.554167
0.545833
0.554167
0.550000
0.545833
0.550000
0.545833
0.545833
0.558333
0.541667
0.550000
0.458333
0.633333
0.554167
0.554167
0.537500
0.554167
0.550000
0.541667
0.550000
0.550000
0.545833
0.550000
0.545833
0.545833
0.425000
0.670833
0.554167
0.541667
0.541667
0.550000
0.533333
0.550000
0.541667
0.537500
0.545833
0.541667
0.545833
0.545833
0.537500
0.550000
0.545833
0.537500
0.550000
0.554167
0.537500
0.550000
0.550000
0.537500
0.545833
0.550000
0.541667
0.550000
0.433333
0.658333
0.554167
0.554167
0.541667
0.554167
0.558333
0.545833
0.554167
0.554167
0.550000
0.558333
0.550000
0.550000
0.562500
0.550000
0.554167
0.562500
0.425000
0.679167
0.570833
0.550000
0.562500
0.554167
0.545833
0.562500
0.545833
0.558333
0.558333
0.545833
0.558333
0.558333
0.545833
0.554167
0.558333
0.545833
0.554167
0.558333
0.541667
0.554167
0.554167
0.541667
0.550000
0.545833
0.545833
0.554167
0.541667
0.554167
0.545833
0.545833
0.554167
0.541667
0.550000
0.558333
0.541667
0.554167
0.554167
0.545833
0.550000
0.558333
0.545833
0.550000
0.558333
0.550000
0.545833
0.558333
0.554167
0.550000
0.558333
0.554167
0.550000
0.558333
0.545833
0.545833
0.562500
0.550000
0.541667
0.562500
0.541667
0.541667
1.091667
0.545833
0.550000
0.537500
0.545833
0.545833
0.537500
0.545833
0.550000
0.533333
0.537500
0.545833
0.550000
0.537500
0.545833
0.545833
0.537500
0.545833
0.550000
0.537500
0.545833
0.550000
0.537500
0.545833
0.550000
0.541667
0.420833
0.675000
0.550000
0.545833
