0.537500
0.537500
0.537500
0.533333
0.537500
0.533333
0.541667
0.533333
0.537500
0.541667
0.537500
0.537500
0.533333
0.537500
0.541667
0.537500
0.537500
0.537500
0.537500
0.537500
0.537500
0.537500
0.537500
0.408333
0.625000
0.550000
0.537500
0.433333
0.612500
0.545833
0.541667
0.404167
0.633333
0.558333
0.541667
0.429167
0.620833
0.545833
0.537500
0.400000
0.641667
0.550000
0.304167
0.625000
0.575000
0.558333
0.400000
0.641667
0.550000
0.537500
0.408333
0.637500
0.545833
0.537500
0.408333
0.625000
0.545833
0.537500
0.400000
0.633333
0.545833
0.537500
0.400000
0.625000
0.541667
0.537500
0.412500
0.616667
0.545833
0.533333
0.404167
0.625000
0.545833
0.537500
0.404167
0.629167
0.550000
0.533333
0.425000
0.612500
0.545833
0.533333
0.408333
0.629167
0.541667
0.541667
0.400000
0.629167
0.545833
0.537500
0.412500
0.620833
0.545833
0.537500
0.408333
0.629167
0.550000
0.541667
0.416667
0.620833
0.545833
0.537500
0.404167
0.629167
0.550000
0.541667
0.404167
0.629167
0.545833
0.541667
0.400000
0.633333
0.550000
0.541667
0.404167
0.633333
0.550000
0.537500
0.541667
0.537500
0.537500
0.537500
0.537500
0.537500
0.537500
0.537500
0.537500
0.541667
0.537500
0.537500
0.537500
0.541667
0.537500
0.537500
0.541667
0.537500
0.541667
0.545833
0.537500
0.537500
0.537500
0.537500
0.541667
0.537500
0.537500
0.541667
0.541667
0.537500
0.537500
0.541667
0.537500
0.537500
0.541667
0.541667
0.537500
0.541667
0.545833
0.541667
0.537500
0.537500
0.541667
0.537500
0.537500
0.545833
0.537500
0.537500
0.537500
0.537500
0.533333
0.537500
0.537500
0.537500
0.541667
0.537500
0.537500
0.541667
0.537500
0.541667
0.537500
0.541667
0.545833
0.541667
0.537500
0.541667
0.541667
0.541667
0.541667
0.550000
0.537500
0.541667
0.537500
0.541667
0.537500
0.541667
0.541667
0.537500
0.541667
0.537500
0.541667
0.537500
0.541667
0.541667
0.541667
0.545833
0.537500
0.541667
0.537500
0.537500
0.541667
0.541667
0.537500
0.537500
0.545833
0.537500
0.541667
0.537500
0.537500
0.541667
0.537500
0.541667
0.541667
0.541667
0.541667
0.537500
0.537500
0.541667
0.537500
0.541667
0.537500
0.545833
0.537500
0.541667
0.537500
0.537500
0.541667
0.541667
0.541667
0.541667
0.541667
0.541667
0.537500
0.550000
0.541667
0.541667
0.541667
0.541667
0.541667
0.545833
0.541667
0.550000
0.541667
0.545833
0.541667
0.541667
0.537500
0.541667
0.545833
0.541667
0.541667
0.537500
0.545833
0.541667
0.541667
0.541667
0.541667
0.541667
0.541667
0.545833
0.541667
0.541667
0.541667
0.545833
0.541667
0.537500
0.412500
0.633333
0.550000
0.545833
0.541667
0.533333
0.537500
0.537500
0.537500
0.541667
0.541667
0.541667
0.541667
0.545833
0.541667
0.545833
0.541667
0.545833
0.545833
0.545833
0.550000
0.545833
0.545833
0.545833
0.550000
0.545833
0.545833
0.545833
0.545833
0.541667
0.545833
0.545833
0.541667
0.541667
0.541667
0.545833
0.541667
0.541667
0.541667
0.541667
0.545833
0.541667
0.541667
0.541667
0.541667
0.416667
0.633333
0.550000
0.541667
0.420833
0.625000
0.550000
0.541667
0.400000
0.641667
0.550000
0.537500
0.404167
0.637500
0.550000
0.541667
0.408333
0.629167
0.550000
0.537500
0.400000
0.645833
0.550000
0.541667
0.400000
0.637500
0.550000
0.537500
0.304167
0.629167
0.575000
0.558333
0.416667
0.625000
0.545833
0.541667
0.420833
0.625000
0.545833
0.537500
0.408333
0.633333
0.550000
0.537500
0.404167
0.637500
0.550000
0.541667
0.412500
0.629167
0.545833
0.541667
0.395833
0.637500
0.545833
0.541667
0.541667
0.537500
0.537500
0.533333
0.537500
0.537500
0.537500
0.420833
0.620833
0.545833
0.545833
0.433333
0.612500
0.545833
0.541667
0.404167
0.633333
0.550000
0.541667
0.400000
0.637500
0.550000
0.545833
0.537500
0.545833
0.541667
0.541667
0.533333
0.541667
0.537500
0.454167
0.604167
0.545833
0.541667
0.437500
0.612500
0.545833
0.545833
0.408333
0.629167
0.550000
0.537500
0.395833
0.637500
0.550000
0.541667
0.425000
0.616667
0.545833
0.533333
0.408333
0.629167
0.545833
0.537500
0.400000
0.633333
0.550000
0.537500
0.533333
0.545833
0.537500
0.537500
0.537500
0.537500
0.533333
0.416667
0.620833
0.550000
0.541667
0.441667
0.604167
0.541667
0.533333
0.412500
0.625000
0.545833
0.537500
0.404167
0.629167
0.545833
0.537500
0.545833
0.537500
0.533333
0.537500
0.537500
0.533333
0.541667
0.537500
0.533333
0.537500
0.541667
0.537500
0.537500
0.537500
0.537500
0.537500
0.537500
0.537500
0.541667
0.541667
0.545833
0.537500
0.537500
0.541667
0.537500
0.541667
0.537500
0.537500
0.541667
0.545833
0.537500
0.537500
0.537500
0.541667
0.537500
0.541667
0.537500
0.545833
0.541667
0.541667
0.541667
0.537500
0.541667
0.541667
0.537500
0.545833
0.541667
0.541667
0.541667
0.541667
0.545833
0.541667
0.541667
0.545833
0.550000
0.545833
0.545833
0.541667
0.545833
0.550000
0.545833
0.541667
0.541667
0.541667
0.545833
0.545833
0.541667
0.545833
0.545833
0.545833
0.541667
0.550000
0.550000
0.545833
0.545833
0.408333
0.641667
0.554167
0.545833
0.416667
0.641667
0.550000
0.545833
0.416667
0.629167
0.554167
0.545833
0.416667
0.633333
0.558333
0.545833
0.400000
0.645833
0.558333
0.545833
0.429167
0.629167
0.554167
0.541667
0.408333
0.645833
0.558333
0.541667
0.545833
0.541667
0.545833
0.550000
0.541667
0.545833
0.541667
0.429167
0.629167
0.554167
0.545833
0.550000
0.550000
0.541667
0.541667
0.541667
0.541667
0.541667
0.545833
0.545833
0.545833
0.545833
0.550000
0.550000
0.545833
0.550000
0.550000
0.550000
0.545833
0.550000
0.550000
0.550000
0.545833
0.550000
0.550000
0.550000
0.550000
0.550000
0.550000
0.545833
0.550000
0.550000
0.550000
0.545833
0.550000
0.545833
0.550000
0.545833
0.545833
0.545833
0.550000
0.545833
0.545833
0.541667
0.545833
0.545833
0.541667
0.541667
0.545833
0.545833
0.541667
0.541667
0.545833
0.545833
0.545833
0.541667
0.545833
0.541667
0.541667
0.545833
0.545833
0.541667
0.545833
0.541667
0.545833
0.541667
0.545833
0.541667
0.545833
0.545833
0.541667
0.545833
0.550000
0.550000
0.541667
0.545833
0.545833
0.550000
0.545833
0.545833
0.541667
0.545833
0.545833
0.541667
0.541667
0.545833
0.545833
0.545833
0.541667
0.541667
0.545833
0.541667
0.545833
0.541667
0.550000
0.550000
0.545833
0.545833
0.541667
0.545833
0.541667
0.550000
0.541667
0.541667
0.550000
0.550000
0.541667
0.545833
0.545833
0.541667
0.550000
0.545833
0.545833
0.550000
0.541667
0.554167
0.554167
0.550000
0.550000
0.545833
0.545833
0.545833
0.554167
0.545833
0.545833
0.404167
0.645833
0.558333
0.545833
0.550000
0.554167
0.545833
0.545833
0.545833
0.545833
0.545833
0.545833
0.545833
0.545833
0.545833
0.545833
0.545833
0.545833
0.541667
0.545833
0.550000
0.545833
0.541667
0.545833
0.545833
0.545833
0.545833
0.545833
0.550000
0.545833
0.550000
0.545833
0.545833
0.545833
0.545833
0.545833
0.545833
0.541667
0.541667
0.550000
0.541667
0.545833
0.541667
0.545833
0.545833
0.541667
0.550000
0.545833
0.545833
0.541667
0.545833
0.541667
0.545833
0.545833
0.541667
0.554167
0.541667
0.545833
0.541667
0.545833
0.541667
0.550000
0.541667
0.545833
0.541667
0.545833
0.545833
0.541667
0.550000
0.545833
0.545833
0.545833
0.541667
0.541667
0.545833
0.545833
0.545833
0.541667
0.541667
0.541667
0.541667
0.541667
0.545833
0.545833
0.541667
0.541667
0.545833
0.541667
0.545833
0.545833
0.545833
0.541667
0.541667
0.545833
0.541667
0.541667
0.545833
0.541667
0.537500
0.537500
0.537500
0.537500
0.541667
0.541667
0.545833
0.541667
0.545833
0.545833
0.545833
0.545833
0.545833
0.550000
0.550000
0.545833
0.550000
0.545833
0.545833
0.550000
0.545833
0.545833
0.550000
0.541667
0.545833
0.545833
0.541667
0.545833
0.545833
0.541667
0.541667
0.541667
0.541667
0.545833
0.541667
0.541667
0.541667
0.545833
0.541667
0.425000
0.625000
0.550000
0.541667
0.541667
0.541667
0.541667
0.541667
0.541667
0.541667
0.541667
0.541667
0.541667
0.537500
0.541667
0.545833
0.537500
0.545833
0.408333
0.641667
0.550000
0.537500
0.420833
0.625000
0.550000
0.537500
0.408333
0.637500
0.550000
0.537500
0.408333
0.633333
0.550000
0.541667
0.400000
0.641667
0.554167
0.545833
0.400000
0.641667
0.550000
0.541667
0.541667
0.541667
0.541667
0.541667
0.541667
0.541667
0.541667
0.541667
0.541667
0.541667
0.541667
0.545833
0.545833
0.545833
0.537500
0.541667
0.541667
0.541667
0.537500
0.541667
0.541667
0.541667
0.537500
0.537500
0.541667
0.541667
0.537500
0.541667
0.537500
0.541667
0.541667
0.541667
0.541667
0.541667
0.541667
0.541667
0.545833
0.541667
0.541667
0.541667
0.541667
0.541667
0.545833
0.545833
0.541667
0.541667
0.541667
0.545833
0.541667
0.545833
0.470833
0.608333
0.550000
0.545833
0.541667
0.545833
0.550000
0.545833
0.545833
0.550000
0.545833
0.550000
0.545833
0.550000
0.408333
0.654167
0.558333
0.545833
0.416667
0.633333
0.554167
0.550000
0.408333
0.637500
0.558333
0.550000
0.408333
0.650000
0.554167
0.550000
0.554167
0.545833
0.545833
0.550000
0.541667
0.545833
0.550000
0.437500
0.620833
0.554167
0.545833
0.450000
0.608333
0.554167
0.545833
0.412500
0.633333
0.554167
0.545833
0.416667
0.629167
0.554167
0.550000
0.420833
0.625000
0.550000
0.541667
0.416667
0.633333
0.550000
0.537500
0.404167
0.641667
0.550000
0.541667
0.404167
0.637500
0.550000
0.541667
0.404167
0.641667
0.554167
0.541667
0.541667
0.545833
0.541667
0.541667
0.537500
0.541667
0.537500
0.541667
0.541667
0.545833
0.545833
0.541667
0.541667
0.541667
0.545833
0.541667
0.541667
0.545833
0.550000
0.541667
0.545833
0.541667
0.550000
0.541667
0.541667
0.545833
0.545833
0.545833
0.541667
0.541667
0.541667
0.541667
0.545833
0.541667
0.541667
0.545833
0.541667
0.545833
0.541667
0.545833
0.550000
0.541667
0.545833
0.541667
0.545833
0.545833
0.545833
0.537500
0.541667
0.541667
0.541667
0.541667
0.545833
0.437500
0.616667
0.554167
0.541667
0.425000
0.629167
0.558333
0.545833
0.408333
0.641667
0.558333
0.550000
0.425000
0.625000
0.550000
0.541667
0.416667
0.633333
0.554167
0.545833
0.412500
0.641667
0.558333
0.550000
0.404167
0.650000
0.562500
0.550000
0.545833
0.550000
0.554167
0.550000
0.550000
0.550000
0.550000
0.554167
0.554167
0.550000
0.550000
0.554167
0.550000
0.550000
0.550000
0.550000
0.550000
0.545833
0.545833
0.550000
0.545833
0.545833
0.550000
0.545833
0.545833
0.550000
0.545833
0.550000
0.545833
0.545833
0.545833
0.550000
0.545833
0.541667
0.545833
0.433333
0.625000
0.554167
0.541667
0.545833
0.545833
0.545833
0.541667
0.545833
0.541667
0.541667
0.545833
0.541667
0.554167
0.541667
0.545833
0.545833
0.550000
0.545833
0.545833
0.541667
0.545833
0.545833
0.545833
0.545833
0.541667
0.545833
0.545833
0.545833
0.545833
0.545833
0.550000
0.550000
0.541667
0.545833
0.545833
0.545833
0.545833
0.545833
0.545833
0.550000
0.545833
0.541667
