0.525000
0.475000
0.529167
0.533333
0.475000
0.562500
0.533333
0.479167
0.512500
1.295833
0.445833
0.375000
0.416667
0.358333
1.220833
0.445833
0.350000
0.333333
0.320833
0.325000
0.341667
0.350000
0.325000
0.337500
0.370833
0.375000
0.362500
0.383333
0.487500
1.229167
0.945833
0.979167
0.437500
0.358333
0.354167
1.241667
0.445833
0.337500
0.316667
0.683333
0.429167
0.433333
0.450000
0.366667
0.362500
0.395833
0.366667
0.329167
0.337500
0.387500
0.354167
0.329167
0.320833
0.483333
0.341667
0.358333
0.375000
0.362500
0.329167
0.304167
0.287500
0.354167
0.387500
0.354167
0.354167
0.375000
0.416667
0.375000
0.375000
0.354167
0.412500
0.387500
0.350000
0.341667
0.391667
0.358333
0.383333
0.441667
0.400000
0.345833
0.291667
0.337500
0.366667
0.316667
0.395833
0.429167
0.379167
0.354167
0.395833
0.408333
0.341667
0.308333
0.379167
0.400000
0.395833
0.362500
0.350000
0.312500
0.333333
0.358333
0.354167
0.391667
0.370833
0.354167
0.358333
0.341667
0.304167
0.362500
0.379167
0.341667
0.337500
0.345833
0.341667
0.362500
0.345833
0.354167
0.366667
0.333333
0.333333
0.391667
0.354167
0.320833
0.341667
0.375000
0.370833
0.391667
0.320833
0.345833
0.420833
0.379167
0.345833
0.362500
0.375000
0.395833
0.370833
0.375000
0.312500
0.337500
0.350000
0.358333
0.362500
0.370833
0.370833
0.345833
0.345833
0.337500
0.329167
0.341667
0.370833
0.375000
0.370833
0.312500
0.333333
0.362500
0.375000
0.366667
0.366667
0.362500
0.362500
0.366667
0.358333
0.333333
0.341667
0.350000
0.391667
0.404167
0.370833
0.337500
0.366667
0.395833
0.366667
0.350000
0.362500
0.370833
0.354167
0.483333
0.387500
0.345833
0.370833
0.362500
0.362500
0.333333
0.458333
0.375000
0.362500
0.354167
0.341667
0.354167
0.395833
0.379167
0.375000
0.370833
0.362500
0.341667
0.350000
0.387500
0.387500
0.358333
0.366667
0.375000
0.354167
0.350000
0.458333
0.595833
0.445833
1.341667
0.966667
1.400000
0.962500
0.929167
0.929167
0.916667
0.925000
0.920833
0.912500
0.920833
0.916667
0.912500
0.920833
0.920833
0.916667
0.916667
0.900000
0.916667
0.908333
0.904167
0.908333
0.904167
0.900000
0.895833
0.895833
0.900000
0.895833
0.891667
0.891667
0.454167
0.350000
0.395833
0.362500
0.362500
0.529167
0.395833
1.437500
0.458333
0.366667
0.362500
0.370833
0.362500
0.341667
0.420833
0.395833
0.375000
0.416667
0.408333
0.375000
0.445833
0.379167
0.383333
0.391667
0.350000
0.329167
0.362500
0.425000
0.420833
0.358333
0.329167
0.350000
0.345833
0.354167
0.341667
0.337500
0.400000
0.404167
0.358333
0.366667
0.429167
0.366667
0.358333
0.375000
0.495833
0.379167
0.358333
0.345833
0.320833
0.379167
0.358333
0.354167
0.370833
0.366667
0.358333
0.333333
0.329167
0.354167
0.375000
0.400000
0.408333
0.387500
0.362500
0.345833
0.337500
0.345833
0.383333
0.395833
0.383333
0.366667
0.366667
0.329167
0.320833
0.337500
0.337500
0.358333
0.358333
0.366667
0.366667
0.358333
0.350000
0.391667
0.400000
0.387500
0.462500
0.579167
0.391667
0.333333
0.329167
0.450000
0.466667
0.370833
0.337500
0.341667
0.375000
0.391667
0.358333
0.345833
0.350000
1.400000
1.370833
1.416667
1.404167
0.970833
0.908333
0.937500
0.925000
0.912500
0.912500
0.912500
0.912500
0.908333
0.912500
0.904167
0.912500
0.904167
0.908333
0.904167
0.904167
0.895833
0.904167
0.458333
0.329167
0.316667
1.812500
0.479167
0.350000
0.350000
0.329167
0.345833
1.266667
0.454167
0.345833
0.329167
0.375000
0.370833
0.325000
0.300000
0.333333
0.320833
0.595833
0.575000
0.508333
0.487500
0.566667
0.554167
0.479167
0.479167
0.520833
0.541667
0.512500
0.483333
0.508333
0.545833
0.520833
0.508333
0.520833
0.508333
0.520833
0.516667
0.512500
0.520833
0.512500
0.516667
0.516667
0.516667
0.516667
0.516667
0.516667
0.516667
0.512500
0.508333
0.520833
0.520833
0.512500
0.520833
0.500000
0.520833
0.516667
0.520833
0.495833
0.529167
0.491667
0.537500
0.537500
0.458333
0.500000
1.154167
0.445833
0.362500
0.433333
0.450000
0.495833
0.408333
0.379167
0.354167
0.545833
0.375000
0.341667
0.366667
0.358333
0.358333
0.379167
0.366667
0.341667
0.329167
0.320833
0.350000
0.387500
0.370833
1.566667
0.450000
0.350000
0.366667
0.500000
1.450000
0.450000
0.350000
0.345833
0.404167
1.395833
0.450000
0.358333
0.345833
0.391667
0.612500
1.533333
0.454167
0.341667
0.329167
0.312500
0.370833
0.370833
0.341667
0.370833
0.366667
1.308333
0.445833
0.341667
0.333333
0.404167
0.400000
0.408333
0.566667
0.387500
0.320833
0.337500
0.362500
0.366667
0.345833
0.329167
0.341667
0.362500
0.358333
0.345833
0.358333
0.366667
0.375000
0.379167
0.362500
0.341667
0.366667
0.387500
0.395833
0.354167
0.341667
0.362500
0.370833
0.391667
0.379167
0.383333
0.370833
0.362500
0.350000
0.341667
0.329167
0.362500
0.375000
0.387500
0.358333
0.379167
0.375000
0.370833
0.370833
0.450000
0.354167
0.362500
0.345833
0.295833
0.404167
0.358333
0.304167
0.341667
0.366667
0.625000
0.454167
0.425000
0.412500
0.366667
0.350000
0.350000
0.337500
0.462500
0.550000
0.383333
0.345833
0.345833
0.345833
0.354167
0.370833
0.379167
0.375000
0.400000
0.637500
0.391667
0.350000
0.350000
0.345833
0.379167
0.375000
0.383333
0.337500
0.308333
0.341667
0.350000
0.341667
0.362500
0.512500
0.566667
0.395833
0.345833
0.387500
0.362500
0.337500
0.345833
0.341667
0.345833
0.333333
0.358333
0.362500
0.366667
0.358333
0.354167
0.341667
0.333333
0.358333
0.366667
0.337500
0.345833
0.345833
0.341667
0.345833
0.354167
0.375000
0.375000
0.370833
0.375000
0.395833
0.383333
0.354167
0.345833
0.345833
0.362500
0.366667
0.366667
0.383333
0.387500
0.516667
0.550000
0.462500
0.358333
0.379167
0.358333
0.358333
0.558333
0.387500
0.537500
0.362500
0.325000
0.491667
0.379167
0.366667
0.391667
0.362500
0.370833
0.341667
0.350000
0.337500
0.354167
0.416667
0.366667
0.329167
0.354167
0.362500
0.354167
0.345833
0.354167
0.362500
0.408333
0.370833
0.354167
0.354167
0.325000
0.354167
0.383333
0.366667
0.362500
0.379167
0.370833
0.358333
0.354167
0.350000
0.333333
0.354167
0.391667
0.400000
0.416667
0.441667
0.416667
0.391667
0.383333
0.370833
0.387500
0.337500
0.341667
0.320833
0.350000
0.425000
0.383333
0.441667
0.370833
0.362500
0.370833
0.379167
0.375000
0.366667
0.329167
0.354167
0.366667
0.350000
0.383333
0.412500
0.366667
0.370833
0.375000
0.370833
0.391667
0.387500
0.379167
0.375000
0.379167
0.487500
0.433333
0.491667
0.470833
0.375000
0.350000
0.475000
0.400000
0.395833
0.345833
0.333333
0.350000
0.375000
0.379167
0.350000
0.366667
0.362500
0.387500
0.387500
0.341667
0.358333
0.350000
0.379167
0.641667
0.379167
0.333333
0.366667
0.454167
0.370833
0.304167
0.312500
0.612500
0.404167
0.337500
0.341667
0.470833
0.537500
0.483333
0.358333
0.333333
0.629167
0.483333
0.379167
0.329167
0.345833
0.420833
0.375000
0.341667
0.345833
0.408333
0.387500
0.366667
0.358333
0.350000
0.370833
0.362500
0.370833
0.379167
0.375000
0.325000
0.425000
0.425000
0.491667
0.375000
0.333333
0.362500
0.383333
0.362500
0.362500
0.362500
0.379167
0.550000
0.395833
0.345833
0.295833
0.337500
0.362500
0.408333
0.370833
0.341667
0.329167
0.350000
0.350000
0.362500
0.341667
0.400000
0.400000
0.366667
0.329167
0.325000
0.379167
0.362500
0.395833
0.383333
0.366667
0.350000
0.366667
0.366667
0.420833
0.470833
0.375000
0.325000
0.337500
0.450000
0.395833
0.337500
0.345833
0.358333
0.370833
0.370833
0.358333
0.375000
0.354167
0.450000
0.375000
0.404167
0.562500
0.362500
0.350000
0.391667
0.337500
0.354167
0.370833
0.404167
0.379167
0.358333
0.333333
0.354167
0.383333
0.350000
0.362500
0.333333
0.337500
0.345833
0.354167
0.379167
0.570833
0.387500
0.366667
0.420833
0.625000
0.416667
0.362500
0.350000
0.358333
0.366667
1.383333
1.400000
1.416667
0.916667
1.337500
0.870833
1.337500
1.362500
1.220833
0.933333
0.962500
0.958333
0.925000
0.920833
0.916667
0.908333
0.900000
0.900000
0.895833
0.895833
0.891667
0.891667
0.887500
0.887500
0.887500
0.887500
0.887500
0.887500
0.891667
0.887500
0.895833
0.887500
0.450000
0.350000
0.341667
0.308333
0.316667
0.354167
0.391667
0.404167
0.366667
0.362500
0.354167
0.325000
0.341667
0.362500
0.362500
0.354167
0.387500
0.391667
0.383333
0.387500
0.370833
0.362500
0.354167
0.325000
0.350000
0.358333
0.370833
0.375000
0.362500
0.383333
0.341667
0.375000
0.370833
0.375000
0.370833
0.358333
0.337500
0.354167
0.354167
0.370833
0.391667
0.358333
0.341667
0.341667
0.350000
0.354167
0.354167
0.379167
0.362500
0.350000
0.337500
0.329167
0.345833
0.358333
0.420833
0.391667
0.387500
0.366667
0.425000
0.379167
0.354167
0.358333
0.370833
0.383333
0.379167
0.383333
0.366667
0.512500
0.441667
0.370833
0.350000
0.366667
0.379167
0.358333
0.395833
0.391667
0.504167
0.383333
0.425000
0.608333
0.375000
0.316667
0.333333
0.350000
0.295833
0.358333
0.370833
0.375000
0.366667
0.450000
0.395833
0.362500
0.362500
0.383333
0.358333
0.350000
0.337500
0.362500
0.350000
0.375000
0.420833
0.366667
0.366667
0.345833
0.333333
0.379167
0.379167
0.345833
0.354167
0.354167
0.350000
0.354167
0.345833
0.333333
0.354167
0.391667
0.975000
1.316667
1.420833
0.883333
1.383333
1.429167
1.191667
0.970833
0.975000
0.966667
0.941667
0.945833
0.937500
0.933333
0.929167
0.916667
0.920833
0.916667
0.912500
0.908333
0.908333
0.904167
0.895833
0.904167
0.454167
0.354167
0.358333
0.337500
1.512500
0.470833
0.354167
0.354167
0.325000
0.312500
0.333333
0.362500
0.362500
0.337500
0.320833
0.304167
0.320833
0.345833
0.358333
0.345833
0.350000
0.337500
0.308333
0.345833
0.362500
0.341667
0.354167
0.354167
0.362500
0.345833
0.375000
0.375000
0.408333
0.391667
0.379167
0.366667
0.362500
0.362500
0.370833
0.375000
0.391667
0.387500
0.454167
0.375000
0.383333
0.366667
0.341667
0.416667
0.383333
0.358333
0.341667
0.337500
0.341667
0.395833
0.383333
0.375000
0.412500
0.375000
0.366667
0.366667
0.383333
0.383333
0.366667
0.416667
0.454167
0.370833
0.425000
0.379167
0.358333
0.354167
0.354167
0.362500
0.420833
0.370833
0.333333
0.375000
0.404167
0.366667
0.608333
0.408333
0.437500
0.404167
0.345833
0.350000
0.370833
0.387500
0.379167
0.304167
0.350000
0.370833
0.375000
0.341667
0.329167
0.341667
0.350000
0.395833
0.391667
0.387500
0.325000
0.329167
0.645833
1.662500
1.408333
1.370833
1.412500
0.958333
1.258333
0.987500
0.925000
0.929167
0.920833
0.912500
0.912500
0.900000
0.900000
0.883333
0.879167
0.875000
0.816667
0.812500
1.287500
0.475000
0.354167
0.375000
0.366667
0.420833
0.408333
0.366667
0.329167
0.416667
1.479167
0.454167
0.362500
0.350000
0.329167
0.350000
0.341667
0.350000
0.375000
0.366667
0.350000
0.345833
0.333333
0.395833
0.350000
1.437500
0.450000
0.358333
0.350000
0.370833
0.362500
0.387500
0.525000
0.558333
0.541667
0.550000
0.512500
0.508333
0.525000
0.533333
0.516667
0.516667
0.529167
0.516667
0.512500
0.525000
0.520833
0.520833
0.520833
0.520833
0.516667
0.525000
0.520833
0.516667
0.516667
0.516667
0.512500
0.525000
0.516667
0.516667
0.516667
0.508333
0.520833
0.520833
0.508333
0.525000
0.504167
0.516667
0.525000
0.508333
0.520833
0.512500
0.504167
0.520833
0.512500
0.487500
0.495833
0.504167
0.520833
0.504167
0.541667
1.533333
0.454167
0.345833
0.337500
0.333333
0.362500
0.587500
1.558333
0.454167
0.345833
0.329167
0.562500
0.725000
0.395833
0.341667
0.529167
0.391667
0.712500
1.483333
0.454167
1.362500
0.458333
0.341667
0.320833
0.300000
0.600000
0.516667
0.512500
0.545833
1.333333
0.454167
0.362500
0.350000
0.333333
0.370833
0.404167
0.470833
0.408333
0.333333
0.375000
0.391667
0.400000
0.395833
0.354167
0.358333
0.354167
0.333333
0.341667
0.370833
0.337500
0.333333
0.395833
0.383333
0.354167
0.358333
0.366667
0.366667
0.350000
0.341667
0.350000
0.366667
0.483333
0.379167
0.337500
0.341667
0.383333
0.375000
0.345833
0.404167
0.370833
0.312500
0.341667
0.362500
0.345833
0.400000
0.391667
0.362500
0.308333
0.345833
0.345833
0.341667
0.383333
0.379167
0.350000
0.379167
0.504167
0.629167
0.391667
0.341667
0.345833
0.366667
0.375000
0.362500
0.354167
0.345833
0.366667
0.358333
0.366667
0.383333
0.483333
0.354167
0.345833
0.370833
0.362500
0.354167
0.358333
0.358333
0.375000
0.437500
0.395833
0.400000
0.387500
0.358333
0.341667
0.312500
0.333333
0.354167
0.316667
0.354167
0.379167
0.370833
0.370833
0.404167
0.441667
0.637500
0.412500
0.445833
0.383333
0.350000
0.350000
0.362500
0.362500
0.337500
0.345833
0.387500
0.433333
0.375000
0.358333
