0.579167
0.566667
0.566667
0.566667
0.570833
0.570833
0.566667
0.562500
0.562500
0.566667
0.566667
0.566667
0.562500
0.558333
0.562500
0.566667
0.566667
0.262500
0.295833
0.558333
0.562500
0.558333
0.566667
0.562500
0.445833
0.641667
0.579167
0.362500
0.762500
0.558333
0.325000
0.233333
0.562500
0.329167
0.254167
0.541667
0.558333
0.562500
0.562500
0.558333
0.279167
0.275000
0.562500
0.562500
0.566667
0.566667
0.562500
0.558333
0.562500
0.562500
0.570833
0.562500
0.558333
0.562500
0.308333
0.254167
0.570833
0.558333
0.558333
0.558333
0.566667
0.566667
0.566667
0.570833
0.566667
0.566667
0.558333
0.562500
0.566667
0.570833
0.566667
0.562500
0.558333
0.562500
0.570833
0.566667
0.558333
0.562500
0.562500
0.562500
0.562500
0.558333
0.558333
0.558333
0.291667
0.270833
0.562500
0.566667
0.566667
0.570833
0.562500
0.562500
0.562500
0.570833
0.562500
0.562500
0.558333
0.558333
0.566667
0.566667
0.562500
0.554167
0.562500
0.566667
0.558333
0.554167
0.558333
0.554167
0.562500
0.554167
0.554167
0.554167
0.445833
0.787500
0.291667
0.475000
0.220833
0.287500
0.545833
0.275000
0.416667
0.625000
0.629167
0.554167
0.554167
0.604167
0.654167
0.354167
0.604167
0.433333
0.679167
0.633333
0.487500
0.562500
0.562500
0.566667
0.558333
0.558333
0.558333
0.566667
0.562500
0.558333
0.558333
0.508333
0.362500
0.250000
0.550000
0.562500
0.562500
0.558333
0.558333
0.554167
0.554167
0.562500
0.558333
0.554167
0.341667
0.212500
0.558333
0.558333
0.566667
0.195833
0.366667
0.304167
0.241667
0.558333
0.554167
0.562500
0.558333
0.558333
0.554167
0.558333
0.566667
0.554167
0.554167
0.558333
0.558333
0.558333
0.562500
0.558333
0.554167
0.558333
0.558333
0.566667
0.554167
0.558333
0.554167
0.562500
0.562500
0.558333
0.558333
0.558333
0.558333
0.558333
0.558333
0.558333
0.558333
0.562500
0.562500
0.566667
0.566667
0.566667
0.562500
0.562500
0.562500
0.566667
0.570833
0.566667
0.558333
0.562500
0.562500
0.570833
0.562500
0.558333
0.562500
0.562500
0.566667
0.558333
0.558333
0.558333
0.562500
0.562500
0.562500
0.554167
0.554167
0.558333
0.562500
0.562500
0.554167
0.550000
0.254167
0.300000
0.562500
0.558333
0.554167
0.550000
0.554167
0.562500
0.554167
0.550000
0.554167
0.554167
0.550000
0.554167
0.554167
0.562500
0.550000
0.554167
0.554167
0.554167
0.383333
0.720833
0.562500
0.375000
0.408333
0.116667
0.491667
1.325000
0.787500
0.554167
0.116667
0.800000
0.400000
0.208333
0.220833
0.587500
0.787500
0.558333
0.558333
0.550000
0.550000
0.554167
0.558333
0.562500
0.554167
0.550000
0.554167
0.558333
0.562500
0.554167
0.445833
0.641667
0.570833
0.566667
0.554167
0.550000
0.554167
0.562500
0.558333
0.554167
0.554167
0.554167
0.558333
0.562500
0.550000
0.554167
0.550000
0.558333
0.558333
0.554167
0.550000
0.550000
0.554167
0.558333
0.558333
0.550000
0.550000
0.550000
0.554167
0.558333
0.550000
0.545833
0.550000
0.554167
0.558333
0.554167
0.550000
0.550000
0.550000
0.441667
0.645833
0.566667
0.550000
0.554167
0.554167
0.558333
0.554167
0.550000
0.554167
0.554167
0.554167
0.550000
0.558333
0.558333
0.550000
0.554167
0.554167
0.554167
0.558333
0.554167
0.550000
0.370833
0.741667
0.558333
0.554167
0.554167
0.562500
0.562500
0.558333
0.558333
0.554167
0.554167
0.562500
0.562500
0.554167
0.558333
0.554167
0.558333
0.566667
0.554167
0.558333
0.554167
0.554167
0.566667
0.554167
0.554167
0.554167
0.554167
0.558333
0.558333
0.554167
0.554167
0.308333
0.241667
0.558333
0.570833
0.245833
0.300000
0.258333
0.295833
0.250000
0.304167
0.545833
0.566667
0.558333
0.554167
0.550000
0.554167
0.554167
0.558333
0.437500
0.641667
0.570833
0.558333
0.558333
0.566667
0.554167
0.554167
0.558333
0.562500
0.562500
0.554167
0.558333
0.554167
0.562500
0.562500
0.554167
0.554167
0.558333
0.562500
0.558333
0.554167
0.554167
0.554167
0.558333
0.554167
0.554167
0.554167
0.554167
0.558333
0.558333
0.558333
0.554167
0.554167
0.612500
0.500000
0.558333
0.558333
0.554167
0.554167
0.558333
0.562500
0.554167
0.558333
0.558333
0.558333
0.566667
0.554167
0.558333
0.558333
0.558333
0.562500
0.562500
0.558333
0.554167
0.558333
0.470833
0.654167
0.554167
0.554167
0.558333
0.562500
0.554167
0.554167
0.554167
0.554167
0.554167
0.558333
0.558333
0.558333
0.554167
0.558333
0.558333
0.558333
0.558333
0.558333
0.554167
0.562500
0.558333
0.562500
0.558333
0.562500
0.558333
0.562500
0.562500
0.566667
0.558333
0.562500
0.566667
0.562500
0.562500
0.562500
0.562500
0.562500
0.566667
0.566667
0.558333
0.575000
0.433333
0.470833
0.762500
0.558333
0.562500
0.562500
0.562500
0.570833
0.562500
0.558333
0.566667
0.562500
0.566667
0.566667
0.270833
0.295833
0.562500
0.566667
0.570833
0.562500
0.562500
0.562500
0.566667
0.570833
0.558333
0.562500
0.558333
0.562500
0.570833
0.558333
0.562500
0.558333
0.558333
0.570833
0.558333
0.558333
0.558333
0.562500
0.562500
0.562500
0.558333
0.554167
0.558333
0.562500
0.562500
0.554167
0.554167
0.558333
0.558333
0.562500
0.554167
0.554167
0.554167
0.558333
0.562500
0.554167
0.550000
0.554167
0.554167
0.558333
0.558333
0.554167
0.554167
0.550000
0.554167
0.562500
0.550000
0.550000
0.554167
0.550000
0.554167
0.554167
0.558333
0.554167
0.550000
0.554167
0.550000
0.558333
0.558333
0.554167
0.550000
0.554167
0.554167
0.554167
0.562500
0.554167
0.437500
0.641667
0.570833
0.562500
0.554167
0.558333
0.558333
0.554167
0.562500
0.554167
0.558333
0.558333
0.558333
0.562500
0.558333
0.554167
0.562500
0.558333
0.562500
0.562500
0.558333
0.558333
0.562500
0.562500
0.558333
0.558333
0.562500
0.566667
0.562500
0.441667
0.654167
0.579167
0.566667
0.562500
0.562500
0.566667
0.566667
0.562500
0.441667
0.654167
0.579167
0.570833
0.558333
0.558333
0.562500
0.566667
0.558333
0.558333
0.558333
0.558333
0.558333
0.562500
0.558333
0.558333
0.554167
0.554167
0.558333
0.558333
0.554167
0.554167
0.558333
0.558333
0.554167
0.558333
0.437500
0.641667
0.570833
0.558333
0.558333
0.554167
0.558333
0.554167
0.283333
0.279167
0.212500
0.245833
0.654167
0.558333
0.562500
0.558333
0.558333
0.562500
0.558333
0.704167
0.633333
0.916667
0.558333
0.562500
0.566667
0.566667
0.558333
0.558333
0.558333
0.566667
0.562500
0.558333
0.558333
0.558333
0.562500
0.566667
0.554167
0.558333
0.554167
0.562500
0.562500
0.558333
0.554167
0.554167
0.558333
0.562500
0.554167
0.558333
0.554167
0.554167
0.562500
0.554167
0.554167
0.554167
0.558333
0.629167
0.237500
0.241667
0.237500
0.320833
0.554167
0.554167
0.558333
0.558333
0.550000
0.558333
0.554167
0.554167
0.558333
0.558333
0.558333
0.554167
0.554167
0.558333
0.558333
0.558333
0.554167
0.558333
0.554167
0.558333
0.558333
0.566667
0.558333
0.441667
0.650000
0.720833
0.420833
0.216667
0.354167
0.562500
0.566667
0.570833
0.566667
0.566667
0.570833
0.362500
0.200000
0.570833
0.575000
0.562500
0.566667
0.566667
0.570833
0.566667
0.562500
0.566667
0.566667
0.566667
0.570833
0.562500
0.562500
0.566667
0.566667
0.566667
0.566667
0.562500
0.562500
0.566667
0.566667
0.562500
0.562500
0.558333
0.562500
0.562500
0.566667
0.558333
0.558333
0.554167
0.562500
0.562500
0.558333
0.554167
0.558333
0.558333
0.558333
0.562500
0.558333
0.558333
0.558333
0.554167
0.562500
0.558333
0.558333
0.558333
0.562500
0.558333
0.566667
0.558333
0.558333
0.558333
0.562500
0.679167
0.445833
0.441667
0.645833
0.479167
0.658333
0.562500
0.566667
0.562500
0.562500
0.558333
0.566667
0.570833
0.562500
0.558333
0.562500
0.566667
0.566667
0.562500
0.562500
0.562500
0.566667
0.566667
0.558333
0.558333
0.562500
0.566667
0.558333
0.562500
0.558333
0.558333
0.566667
0.558333
0.558333
0.558333
0.558333
0.562500
0.562500
0.562500
0.554167
0.558333
0.558333
0.566667
0.558333
0.554167
0.554167
0.562500
0.562500
0.562500
0.554167
0.558333
0.558333
0.566667
0.558333
0.558333
0.554167
0.558333
0.566667
0.558333
0.554167
0.558333
0.558333
0.562500
0.212500
0.345833
0.558333
0.554167
0.558333
0.562500
0.562500
0.558333
0.558333
0.554167
0.558333
0.558333
0.558333
0.583333
0.233333
0.304167
0.558333
0.558333
0.554167
0.562500
0.558333
0.562500
0.558333
0.258333
0.300000
0.562500
0.562500
0.562500
0.562500
0.570833
0.558333
0.562500
0.558333
0.570833
0.675000
0.441667
0.558333
0.566667
0.566667
0.558333
0.554167
0.558333
0.562500
0.566667
0.562500
0.558333
0.554167
0.562500
0.562500
0.562500
0.558333
0.558333
0.554167
0.562500
0.566667
0.554167
0.558333
0.554167
0.558333
0.562500
0.558333
0.558333
0.437500
0.645833
0.575000
0.558333
0.558333
0.558333
0.558333
0.558333
0.558333
0.558333
0.554167
0.562500
0.562500
0.554167
0.558333
0.558333
0.558333
0.562500
0.562500
0.562500
0.554167
0.558333
0.558333
0.562500
0.562500
0.341667
0.220833
0.558333
0.562500
0.562500
0.570833
0.558333
0.558333
0.566667
0.570833
0.558333
0.562500
0.566667
0.570833
0.558333
0.562500
0.558333
0.566667
0.566667
0.558333
0.562500
0.558333
0.566667
0.566667
0.562500
0.558333
0.558333
0.562500
0.562500
0.566667
0.558333
0.558333
0.558333
0.558333
0.566667
0.558333
0.558333
0.558333
0.562500
0.562500
0.558333
0.558333
0.558333
0.558333
0.562500
0.562500
0.562500
0.558333
0.562500
0.562500
0.566667
0.558333
0.558333
0.558333
0.437500
0.695833
0.562500
0.558333
0.562500
0.562500
0.566667
0.566667
0.433333
0.687500
0.554167
0.562500
0.562500
0.566667
0.554167
0.558333
0.558333
0.566667
0.554167
0.554167
0.558333
0.558333
0.558333
0.558333
0.554167
0.558333
0.554167
0.558333
0.558333
0.562500
0.562500
0.558333
0.558333
0.562500
0.562500
0.554167
0.558333
0.558333
0.554167
0.562500
0.562500
0.558333
0.558333
0.558333
0.562500
0.562500
0.562500
0.562500
0.558333
0.562500
0.562500
0.566667
0.558333
0.566667
0.504167
0.308333
0.316667
0.570833
0.570833
0.575000
0.570833
0.566667
0.566667
0.570833
0.575000
0.570833
0.562500
0.566667
0.566667
0.575000
0.566667
0.562500
0.562500
0.562500
0.575000
0.562500
0.558333
0.558333
0.562500
0.566667
0.562500
0.558333
0.554167
0.558333
0.562500
0.566667
0.554167
0.558333
0.554167
0.558333
0.566667
0.554167
0.554167
0.554167
0.558333
0.562500
0.558333
0.554167
0.554167
0.558333
0.558333
0.558333
0.554167
0.550000
0.554167
0.554167
0.333333
0.225000
0.550000
0.550000
0.554167
0.550000
0.554167
0.554167
0.554167
0.550000
0.554167
0.550000
0.554167
0.554167
0.350000
0.337500
0.416667
0.550000
0.525000
0.583333
0.558333
0.562500
0.558333
0.562500
0.566667
0.566667
0.566667
0.566667
0.558333
0.562500
0.566667
0.570833
0.562500
0.558333
0.558333
0.562500
0.570833
0.558333
0.558333
0.558333
0.558333
0.558333
0.566667
0.558333
0.554167
0.554167
0.562500
