0.350000
0.358333
0.341667
0.341667
0.350000
0.366667
0.370833
0.362500
0.341667
0.404167
0.429167
0.400000
0.483333
0.491667
0.404167
0.366667
0.666667
1.454167
1.345833
0.979167
1.308333
1.354167
0.983333
0.975000
1.262500
0.895833
0.979167
1.366667
0.487500
0.908333
0.458333
0.550000
0.454167
1.312500
0.458333
0.383333
0.383333
0.350000
0.670833
0.312500
0.337500
0.341667
0.366667
0.345833
0.341667
0.358333
0.350000
0.350000
2.029167
0.466667
0.358333
0.366667
0.366667
0.354167
0.366667
0.370833
0.362500
0.341667
0.350000
0.362500
0.366667
0.366667
0.358333
0.383333
0.362500
0.333333
0.358333
0.395833
0.495833
0.400000
0.358333
0.350000
0.354167
0.366667
0.387500
0.387500
0.370833
0.354167
0.350000
0.454167
0.391667
0.370833
0.370833
0.354167
0.337500
0.341667
0.370833
0.241667
1.812500
1.083333
1.262500
0.941667
1.395833
0.479167
0.337500
0.308333
0.404167
0.379167
0.379167
0.375000
0.337500
0.345833
0.400000
0.383333
1.479167
0.458333
0.358333
0.354167
0.350000
0.362500
0.358333
0.358333
0.370833
0.362500
0.362500
0.387500
0.383333
0.379167
0.354167
0.345833
0.375000
0.420833
0.462500
0.404167
0.354167
0.358333
0.362500
0.362500
0.337500
0.350000
0.545833
0.408333
0.420833
0.466667
0.370833
0.341667
0.325000
0.358333
0.387500
0.362500
0.366667
0.362500
0.658333
0.391667
0.350000
0.345833
0.345833
0.358333
0.350000
0.345833
0.412500
0.383333
0.341667
0.316667
0.350000
0.375000
0.391667
0.337500
0.370833
0.395833
0.366667
0.350000
0.341667
0.358333
0.420833
1.408333
1.304167
1.062500
1.045833
1.016667
0.975000
0.912500
1.612500
1.004167
0.933333
1.287500
1.012500
1.000000
0.962500
0.950000
0.925000
0.866667
0.854167
1.350000
0.600000
0.241667
0.320833
0.375000
0.362500
0.312500
0.245833
0.508333
0.375000
0.333333
0.370833
0.854167
1.445833
0.479167
0.341667
0.308333
0.308333
0.616667
1.208333
0.458333
0.358333
0.345833
0.316667
1.141667
0.450000
0.345833
0.325000
0.341667
0.462500
1.550000
0.466667
0.412500
1.491667
0.483333
0.341667
0.300000
0.316667
0.395833
0.379167
0.337500
0.337500
0.362500
1.412500
0.458333
0.350000
0.325000
0.333333
0.354167
0.391667
0.375000
0.354167
0.370833
0.366667
0.375000
0.370833
0.345833
0.358333
0.362500
0.329167
0.337500
0.366667
0.354167
0.362500
0.370833
0.345833
0.316667
0.329167
0.375000
0.366667
0.375000
0.362500
0.391667
0.379167
0.350000
0.458333
0.387500
0.354167
0.337500
0.366667
0.362500
0.362500
0.379167
0.395833
0.370833
0.341667
0.358333
0.354167
0.333333
0.325000
0.333333
0.379167
0.362500
0.366667
0.391667
0.479167
0.400000
0.370833
0.366667
0.354167
0.366667
0.366667
0.412500
0.383333
0.362500
0.362500
0.325000
0.341667
0.370833
0.362500
0.366667
0.387500
0.362500
0.341667
0.350000
0.366667
0.533333
0.408333
0.350000
0.433333
0.408333
0.383333
0.333333
0.333333
0.366667
0.358333
0.358333
0.391667
0.400000
0.362500
0.341667
0.354167
0.358333
0.362500
0.375000
0.375000
0.500000
0.395833
0.329167
0.341667
0.354167
0.370833
0.391667
0.366667
0.358333
0.362500
0.383333
0.375000
0.350000
0.345833
0.429167
0.387500
0.370833
0.370833
0.429167
0.379167
0.370833
0.458333
0.512500
0.387500
0.366667
0.354167
0.366667
0.387500
0.358333
0.333333
0.345833
0.350000
0.379167
0.387500
0.337500
0.337500
0.366667
0.345833
0.362500
0.358333
0.362500
0.366667
0.375000
0.404167
0.400000
0.358333
0.408333
0.420833
0.466667
0.375000
0.325000
0.350000
0.391667
0.366667
0.412500
0.416667
0.379167
0.370833
0.400000
0.354167
1.458333
1.183333
1.266667
1.470833
1.462500
0.987500
0.991667
0.966667
1.175000
1.004167
1.245833
1.025000
1.012500
0.970833
0.950000
0.900000
0.858333
1.387500
0.491667
0.662500
0.404167
1.750000
0.495833
0.616667
0.662500
0.762500
0.587500
0.941667
0.583333
0.812500
0.758333
0.708333
1.783333
0.875000
0.879167
1.241667
0.779167
0.600000
0.862500
1.404167
0.829167
0.958333
1.666667
0.783333
0.654167
0.462500
0.408333
0.400000
1.404167
0.483333
0.350000
0.333333
0.337500
0.329167
0.350000
0.395833
0.395833
0.445833
0.387500
0.420833
0.370833
0.325000
1.662500
0.470833
0.341667
0.312500
0.358333
0.495833
0.416667
1.812500
0.483333
0.345833
0.300000
0.345833
0.416667
0.400000
0.362500
0.341667
0.358333
0.704167
0.295833
0.395833
0.441667
0.404167
0.379167
0.341667
0.354167
0.458333
0.370833
0.308333
0.350000
0.383333
0.345833
0.350000
0.362500
0.366667
0.358333
0.370833
0.358333
0.345833
0.366667
0.483333
0.366667
0.366667
0.470833
0.387500
0.591667
0.325000
0.370833
0.325000
0.345833
0.400000
0.362500
0.366667
0.350000
0.329167
0.329167
0.312500
0.370833
0.408333
0.454167
0.550000
0.404167
0.362500
0.375000
0.362500
0.350000
0.337500
0.341667
0.337500
0.358333
0.400000
0.383333
0.366667
0.358333
0.333333
0.375000
0.354167
0.387500
0.387500
0.412500
0.379167
0.350000
1.720833
1.095833
1.525000
1.045833
1.045833
1.387500
1.045833
1.033333
0.983333
0.945833
0.908333
0.970833
0.912500
1.350000
0.495833
0.666667
0.450000
0.504167
0.416667
1.345833
0.475000
0.341667
0.341667
0.354167
0.258333
0.354167
1.333333
0.954167
1.316667
0.495833
0.612500
0.729167
0.583333
1.045833
0.725000
0.320833
0.320833
1.612500
0.487500
1.412500
1.016667
0.979167
0.483333
0.729167
1.845833
1.079167
0.812500
0.454167
1.308333
0.566667
0.675000
0.741667
0.758333
0.700000
0.770833
0.629167
0.762500
0.654167
0.812500
0.308333
0.462500
1.170833
1.412500
0.787500
0.654167
1.908333
0.800000
0.725000
0.937500
0.725000
1.254167
0.816667
0.775000
0.720833
0.929167
0.637500
1.562500
0.816667
0.691667
0.641667
0.429167
0.375000
0.345833
0.345833
0.370833
0.362500
0.354167
0.362500
0.370833
0.358333
0.362500
0.370833
0.362500
0.362500
0.362500
0.370833
0.366667
0.362500
0.362500
0.366667
0.370833
0.362500
0.370833
0.362500
0.366667
0.366667
0.370833
0.362500
0.366667
0.370833
0.370833
0.362500
0.366667
0.366667
0.370833
0.366667
0.366667
0.366667
0.370833
0.370833
0.370833
0.366667
0.366667
0.370833
0.370833
0.366667
0.370833
0.375000
0.366667
0.370833
0.375000
0.370833
0.366667
0.370833
0.375000
0.370833
0.370833
0.366667
0.375000
0.366667
0.370833
0.375000
1.366667
0.466667
0.366667
0.337500
0.329167
0.366667
0.375000
0.445833
0.404167
0.383333
0.383333
0.383333
0.391667
0.387500
0.387500
0.383333
0.391667
0.375000
0.370833
0.375000
0.383333
0.358333
0.337500
0.416667
1.437500
1.087500
1.345833
0.520833
0.958333
0.733333
0.729167
0.291667
0.350000
0.616667
0.404167
0.445833
0.366667
0.316667
0.337500
0.341667
0.337500
0.350000
0.454167
0.404167
0.370833
0.366667
0.383333
0.395833
0.370833
0.366667
0.362500
0.358333
0.400000
0.391667
0.395833
0.370833
0.383333
0.350000
0.333333
0.379167
0.866667
0.345833
0.412500
0.375000
0.354167
0.337500
0.333333
0.354167
0.354167
0.383333
0.383333
0.370833
0.383333
0.366667
0.375000
0.475000
0.400000
1.441667
1.020833
1.470833
1.054167
0.983333
0.962500
0.887500
0.975000
1.329167
0.958333
0.983333
0.945833
0.879167
0.858333
1.391667
0.495833
0.358333
0.387500
0.262500
0.512500
0.391667
0.262500
0.741667
1.304167
0.470833
0.350000
0.458333
0.395833
0.341667
1.333333
0.470833
0.345833
0.737500
0.570833
0.516667
0.520833
0.412500
0.458333
0.629167
1.291667
0.466667
0.345833
0.329167
0.470833
0.670833
0.375000
0.441667
1.395833
0.462500
0.350000
0.333333
0.420833
0.391667
0.329167
0.370833
0.379167
0.345833
0.333333
1.716667
0.466667
0.341667
0.325000
0.316667
0.470833
1.345833
0.458333
0.341667
0.320833
0.550000
0.616667
1.429167
0.475000
0.341667
0.300000
0.712500
0.395833
0.366667
0.408333
0.370833
0.337500
0.400000
0.650000
0.595833
0.358333
0.600000
1.387500
0.462500
0.341667
0.312500
0.362500
0.391667
0.254167
0.479167
0.495833
1.212500
1.187500
0.470833
0.337500
0.320833
0.400000
0.266667
0.741667
1.333333
0.933333
1.320833
0.604167
0.229167
0.329167
0.425000
0.662500
0.325000
0.416667
1.591667
0.475000
0.341667
0.312500
0.358333
0.358333
0.329167
0.595833
1.370833
0.470833
0.333333
0.308333
0.345833
0.379167
1.429167
1.033333
0.475000
0.570833
1.566667
0.479167
0.341667
1.429167
0.479167
1.416667
0.495833
0.625000
0.883333
0.712500
0.379167
0.612500
0.529167
0.533333
0.387500
0.612500
0.512500
0.508333
0.504167
0.404167
0.620833
0.504167
0.516667
0.512500
0.516667
0.395833
0.620833
0.512500
0.512500
0.400000
0.508333
0.620833
0.512500
0.512500
0.400000
0.508333
0.508333
0.620833
0.516667
0.504167
0.400000
0.508333
0.625000
0.404167
0.612500
0.512500
0.400000
0.508333
0.516667
0.508333
0.625000
0.508333
0.395833
0.479167
0.487500
0.633333
0.504167
0.504167
0.516667
0.383333
0.512500
0.500000
0.625000
0.508333
0.500000
0.404167
0.495833
0.508333
0.508333
0.616667
0.512500
0.387500
0.504167
0.504167
0.616667
0.512500
0.500000
0.508333
0.391667
0.500000
0.508333
0.500000
0.620833
0.391667
0.616667
0.387500
0.504167
0.504167
0.620833
0.504167
0.391667
0.504167
0.504167
0.504167
0.504167
0.616667
0.508333
0.391667
0.504167
0.616667
0.504167
0.504167
0.508333
0.387500
0.504167
0.616667
0.504167
0.508333
0.504167
0.391667
0.500000
0.504167
0.508333
0.616667
0.391667
0.504167
0.500000
0.504167
0.504167
0.504167
0.616667
0.391667
0.504167
0.500000
0.625000
0.391667
0.616667
0.504167
0.391667
0.500000
0.504167
0.616667
0.504167
0.387500
0.504167
0.500000
0.504167
0.504167
0.616667
0.504167
0.387500
0.504167
0.500000
0.504167
0.616667
0.504167
0.391667
0.500000
0.500000
0.504167
0.616667
0.504167
0.391667
0.612500
0.391667
0.500000
0.616667
0.504167
0.504167
0.504167
0.387500
0.500000
0.616667
0.387500
0.508333
0.612500
0.391667
0.495833
0.504167
0.504167
0.616667
0.500000
0.504167
0.387500
0.500000
0.504167
0.612500
0.504167
0.504167
0.495833
0.391667
0.500000
0.504167
0.616667
0.500000
0.504167
0.387500
0.500000
0.616667
0.387500
0.616667
0.504167
0.500000
0.387500
0.500000
0.504167
0.616667
0.500000
0.504167
0.383333
0.504167
0.500000
0.616667
0.391667
0.612500
0.391667
0.495833
0.504167
0.504167
0.612500
0.504167
0.391667
0.495833
0.504167
0.612500
0.395833
0.495833
0.504167
0.495833
0.504167
0.504167
0.504167
0.612500
0.504167
0.379167
0.504167
0.612500
0.504167
0.504167
0.383333
0.504167
0.495833
0.616667
0.395833
0.608333
0.508333
0.383333
0.504167
0.500000
0.612500
0.512500
0.370833
0.625000
0.383333
0.495833
0.629167
0.375000
0.629167
0.379167
0.612500
0.395833
0.487500
0.629167
0.383333
0.616667
0.508333
0.375000
0.512500
0.491667
0.616667
0.512500
0.487500
0.516667
0.366667
0.508333
0.620833
0.487500
0.520833
0.370833
0.504167
0.625000
0.370833
0.633333
0.366667
0.512500
0.508333
0.479167
0.637500
0.375000
0.620833
0.512500
0.362500
0.520833
0.487500
0.620833
0.395833
0.479167
0.633333
0.366667
0.504167
0.629167
0.366667
0.637500
0.370833
0.504167
