0.241667
0.995833
0.279167
0.291667
0.933333
0.279167
0.654167
0.379167
0.445833
0.454167
0.362500
0.854167
0.245833
0.350000
0.220833
0.225000
0.500000
0.133333
0.595833
0.412500
0.258333
0.637500
0.600000
0.670833
1.162500
0.466667
0.291667
0.641667
0.641667
0.658333
0.633333
0.645833
0.670833
0.629167
0.650000
0.650000
0.866667
0.266667
0.262500
0.408333
0.695833
0.150000
0.283333
0.295833
0.270833
0.475000
0.666667
0.666667
0.662500
0.666667
0.637500
0.658333
0.562500
0.116667
0.491667
0.137500
0.658333
0.650000
0.383333
0.287500
0.637500
0.454167
0.216667
0.266667
0.354167
0.383333
0.266667
0.641667
0.637500
0.637500
0.637500
0.641667
0.633333
0.637500
0.637500
0.637500
0.633333
0.633333
0.637500
0.629167
0.820833
0.441667
0.641667
0.316667
0.312500
0.308333
0.645833
0.070833
0.245833
0.329167
0.291667
0.650000
0.345833
0.287500
0.395833
0.241667
0.641667
0.633333
0.633333
0.862500
0.404167
0.629167
0.629167
0.383333
0.758333
0.441667
0.316667
0.529167
0.725000
0.625000
0.633333
0.633333
0.629167
0.983333
0.904167
0.633333
0.625000
0.629167
0.625000
0.625000
0.625000
0.370833
0.254167
0.620833
0.625000
0.629167
0.620833
0.250000
0.366667
0.354167
0.275000
0.620833
0.445833
0.608333
0.820833
0.616667
0.620833
0.620833
0.620833
0.616667
0.625000
0.625000
0.475000
0.758333
0.620833
0.625000
0.620833
0.620833
0.808333
0.437500
0.616667
0.616667
0.645833
0.325000
0.300000
0.629167
0.625000
0.200000
0.420833
0.529167
0.733333
0.625000
0.625000
0.629167
0.625000
0.625000
0.625000
0.625000
0.629167
0.629167
0.629167
0.629167
0.629167
0.629167
0.633333
0.633333
0.633333
0.629167
0.633333
0.633333
0.633333
0.637500
0.637500
0.958333
0.320833
0.120833
0.191667
0.445833
1.045833
0.283333
0.237500
0.233333
0.320833
0.316667
0.287500
0.345833
0.391667
0.237500
0.412500
0.220833
0.295833
0.529167
0.312500
0.116667
0.816667
0.454167
0.629167
0.629167
0.633333
0.629167
0.633333
0.633333
0.208333
0.425000
0.462500
0.666667
0.250000
0.516667
0.633333
0.633333
0.629167
0.633333
0.520833
0.208333
0.529167
0.633333
0.633333
0.629167
0.529167
0.479167
0.254167
0.629167
0.633333
0.629167
0.629167
0.629167
0.483333
0.141667
0.712500
0.650000
0.533333
0.625000
0.633333
0.637500
0.633333
0.633333
0.616667
0.450000
0.308333
0.516667
0.633333
0.629167
0.633333
0.216667
0.408333
0.333333
0.366667
0.566667
0.633333
1.037500
0.216667
0.354167
0.275000
0.633333
1.112500
0.141667
0.625000
0.387500
0.345833
0.495833
0.658333
0.629167
0.625000
0.633333
0.625000
0.600000
0.266667
0.395833
1.154167
0.300000
1.066667
0.629167
0.629167
0.625000
0.633333
0.620833
0.616667
0.345833
0.291667
0.445833
0.287500
0.295833
0.225000
0.537500
0.712500
0.633333
0.620833
0.629167
0.625000
0.629167
0.633333
0.208333
0.420833
0.637500
0.625000
0.633333
1.000000
0.275000
0.320833
0.312500
0.845833
0.425000
0.625000
0.637500
0.637500
0.633333
0.637500
0.633333
0.637500
0.637500
0.637500
0.637500
0.637500
0.637500
0.637500
0.637500
0.637500
0.633333
0.637500
0.633333
0.637500
0.633333
0.633333
0.633333
0.633333
0.629167
0.633333
0.625000
0.633333
0.629167
0.387500
0.283333
0.408333
0.679167
0.208333
0.433333
0.345833
0.279167
0.229167
0.512500
0.629167
0.629167
0.625000
0.625000
0.633333
0.625000
0.625000
0.629167
0.629167
0.625000
0.625000
0.625000
0.629167
0.504167
0.279167
0.566667
0.516667
0.629167
0.625000
0.620833
0.625000
0.629167
0.366667
0.570833
0.312500
0.308333
0.320833
0.629167
0.483333
0.766667
0.616667
0.620833
0.762500
0.495833
0.295833
0.329167
0.625000
0.204167
0.420833
0.629167
0.450000
0.291667
0.508333
0.625000
0.625000
0.954167
0.420833
0.654167
0.658333
0.541667
0.525000
0.620833
0.208333
0.416667
0.316667
0.295833
0.283333
0.345833
0.462500
0.287500
0.283333
0.212500
0.354167
0.275000
0.616667
0.404167
0.220833
0.308333
0.308333
0.625000
0.625000
0.379167
0.245833
0.625000
0.616667
0.641667
0.625000
0.633333
0.629167
0.633333
0.629167
0.629167
0.358333
0.270833
0.629167
0.945833
0.325000
0.629167
0.629167
0.629167
0.362500
0.604167
0.304167
0.629167
0.633333
0.637500
0.629167
0.370833
0.262500
0.745833
0.520833
0.545833
0.720833
0.183333
0.450000
0.629167
0.629167
0.416667
0.850000
0.633333
0.633333
0.629167
0.633333
0.629167
0.633333
0.629167
0.629167
0.633333
0.954167
0.404167
0.533333
0.300000
0.337500
0.387500
0.870833
0.225000
0.408333
0.408333
0.220833
0.625000
0.629167
0.637500
0.616667
0.433333
0.633333
0.354167
0.470833
0.633333
1.258333
0.629167
0.629167
0.633333
0.379167
0.254167
0.420833
0.270833
0.137500
0.695833
0.433333
0.575000
0.300000
0.450000
0.520833
0.887500
0.337500
0.450000
0.295833
0.570833
0.629167
1.275000
0.950000
0.979167
1.345833
0.650000
0.691667
0.683333
0.758333
0.433333
0.441667
0.420833
0.345833
0.345833
0.458333
0.575000
0.333333
0.683333
0.291667
0.387500
0.475000
0.875000
0.670833
1.075000
0.250000
0.900000
0.429167
0.800000
0.095833
0.412500
0.300000
0.350000
0.675000
0.645833
0.675000
0.475000
0.541667
0.275000
0.662500
0.487500
0.295833
0.729167
0.300000
0.833333
0.633333
1.337500
1.333333
1.341667
1.354167
0.679167
0.687500
0.583333
0.404167
0.391667
0.700000
0.316667
0.383333
0.495833
0.916667
0.708333
0.720833
0.716667
0.729167
0.483333
0.241667
1.870833
0.325000
0.729167
0.195833
0.520833
0.712500
0.700000
0.254167
0.445833
0.683333
0.679167
0.658333
0.662500
0.658333
0.425000
0.262500
0.262500
0.345833
0.337500
0.320833
0.633333
1.137500
0.133333
0.304167
0.587500
0.445833
0.566667
0.341667
0.291667
0.520833
0.737500
1.266667
0.629167
0.633333
0.629167
0.633333
0.633333
0.629167
0.633333
0.637500
0.637500
0.633333
0.808333
0.695833
1.012500
0.629167
0.625000
0.625000
0.625000
0.625000
0.637500
0.404167
0.212500
0.270833
0.345833
0.304167
0.333333
0.612500
0.320833
0.291667
0.454167
0.316667
0.641667
0.212500
0.687500
0.308333
0.541667
0.587500
0.562500
0.462500
0.204167
0.720833
0.379167
0.245833
0.645833
0.412500
0.383333
0.966667
0.404167
0.854167
0.620833
1.258333
1.254167
0.625000
0.629167
1.254167
0.629167
0.629167
0.629167
0.625000
0.629167
0.629167
0.625000
0.625000
0.633333
0.633333
0.237500
0.387500
0.620833
0.625000
0.625000
0.625000
0.620833
0.616667
0.620833
0.620833
0.616667
0.620833
0.620833
0.620833
0.616667
0.454167
0.570833
0.295833
0.354167
0.195833
0.312500
0.212500
0.354167
0.366667
0.625000
0.629167
0.625000
0.620833
0.629167
1.250000
0.633333
0.629167
0.629167
0.629167
0.629167
0.629167
0.629167
0.629167
0.629167
0.633333
0.629167
0.629167
0.633333
0.625000
0.629167
0.629167
0.625000
0.625000
0.629167
0.629167
0.629167
0.629167
0.633333
0.629167
0.629167
0.629167
0.295833
0.333333
0.225000
0.404167
0.329167
0.304167
0.625000
0.629167
0.625000
0.629167
0.337500
0.287500
0.591667
0.654167
0.620833
0.625000
0.620833
0.625000
0.625000
0.625000
0.629167
0.625000
0.629167
0.279167
0.345833
0.625000
0.625000
0.629167
0.625000
0.425000
0.416667
0.412500
0.620833
0.325000
0.300000
0.625000
0.625000
0.629167
0.629167
0.629167
0.625000
0.625000
0.629167
0.620833
0.625000
0.625000
0.625000
0.620833
0.625000
0.629167
0.620833
0.620833
0.612500
0.625000
0.620833
0.641667
0.329167
0.300000
0.354167
0.275000
0.708333
0.541667
0.629167
0.625000
0.625000
0.620833
0.629167
0.258333
0.370833
0.250000
0.375000
0.625000
0.625000
0.625000
0.625000
0.629167
0.629167
0.629167
0.625000
0.637500
0.637500
0.475000
0.275000
1.158333
0.816667
0.558333
0.533333
0.637500
0.595833
1.183333
0.612500
0.166667
1.279167
0.979167
0.929167
0.629167
0.566667
0.695833
0.629167
0.625000
0.625000
0.629167
0.625000
0.620833
0.612500
0.329167
0.275000
0.420833
0.625000
0.216667
0.616667
0.625000
0.245833
0.375000
0.616667
0.620833
0.845833
0.391667
0.258333
0.358333
0.616667
0.620833
0.708333
0.279167
0.245833
0.616667
0.483333
0.133333
0.437500
0.437500
0.987500
0.616667
0.620833
0.612500
1.241667
0.620833
1.237500
1.241667
0.616667
0.620833
0.620833
0.616667
0.620833
0.616667
0.462500
0.270833
0.341667
0.404167
0.695833
0.433333
0.575000
0.570833
0.629167
0.629167
1.008333
0.762500
0.750000
1.254167
1.258333
0.625000
0.616667
0.395833
0.866667
0.379167
1.025000
0.300000
0.650000
0.150000
1.254167
0.633333
0.616667
0.629167
0.420833
0.304167
0.295833
0.887500
0.350000
0.854167
0.620833
0.620833
0.616667
0.616667
0.625000
0.358333
0.283333
0.679167
0.362500
0.337500
0.529167
0.429167
0.875000
0.887500
0.837500
0.620833
0.395833
0.220833
0.241667
0.379167
0.625000
0.620833
0.870833
0.375000
0.620833
0.620833
0.616667
0.620833
0.620833
0.612500
0.625000
0.616667
0.395833
0.579167
0.254167
0.612500
0.358333
0.741667
0.262500
0.495833
0.825000
0.408333
0.620833
0.616667
0.287500
0.245833
0.291667
0.408333
0.345833
0.275000
0.429167
0.475000
0.333333
0.620833
0.616667
0.620833
0.620833
0.895833
0.345833
0.625000
1.233333
0.620833
0.620833
0.445833
0.800000
0.520833
0.500000
1.145833
0.325000
0.620833
0.633333
0.720833
0.516667
0.291667
0.633333
0.325000
0.625000
0.912500
0.325000
0.300000
0.329167
0.620833
0.620833
0.620833
0.620833
0.625000
0.620833
0.425000
0.570833
0.408333
0.275000
0.420833
0.287500
0.720833
0.616667
0.445833
0.812500
0.625000
1.250000
0.720833
0.729167
0.225000
0.291667
0.516667
0.625000
0.925000
0.320833
0.750000
0.391667
0.166667
1.187500
0.616667
0.412500
0.220833
0.620833
1.304167
0.562500
0.620833
0.362500
0.375000
0.408333
0.300000
0.700000
0.395833
0.833333
0.570833
0.479167
1.395833
0.754167
1.241667
0.316667
0.579167
0.620833
0.620833
1.233333
1.258333
1.245833
0.625000
0.625000
0.620833
1.212500
0.637500
0.412500
0.687500
0.283333
0.287500
0.225000
0.637500
0.608333
0.591667
0.762500
0.520833
0.625000
0.620833
0.829167
0.512500
0.095833
0.429167
0.933333
0.316667
0.254167
0.366667
0.491667
0.754167
0.625000
0.625000
0.625000
0.320833
0.295833
0.366667
0.891667
0.558333
0.937500
0.150000
0.862500
1.250000
0.991667
0.645833
0.229167
0.337500
1.000000
0.537500
0.508333
0.462500
0.275000
0.325000
0.304167
0.620833
1.250000
0.820833
0.429167
0.820833
0.845833
0.212500
0.625000
0.625000
0.620833
0.625000
0.437500
0.816667
1.020833
0.845833
0.229167
0.400000
0.887500
0.366667
0.920833
0.858333
0.095833
