0.329167
0.600000
0.375000
0.470833
0.441667
0.470833
0.579167
0.533333
0.983333
0.283333
0.591667
0.420833
0.341667
0.554167
0.416667
0.354167
0.500000
0.708333
0.362500
0.437500
0.425000
0.420833
0.412500
0.450000
0.391667
0.337500
0.325000
0.412500
0.470833
0.537500
0.475000
0.341667
0.433333
0.441667
0.454167
0.487500
0.445833
0.445833
0.479167
0.458333
0.470833
0.466667
0.479167
0.625000
0.466667
0.425000
0.316667
0.325000
0.558333
0.333333
0.641667
0.666667
0.487500
1.066667
0.841667
0.408333
0.487500
0.533333
0.495833
0.333333
0.312500
0.454167
0.854167
0.854167
0.929167
0.387500
0.966667
0.912500
1.266667
0.804167
0.262500
0.512500
0.641667
0.850000
0.575000
0.366667
0.500000
1.125000
0.425000
0.212500
0.358333
0.462500
0.487500
0.262500
1.029167
0.558333
0.658333
0.737500
0.412500
0.975000
0.220833
0.870833
0.820833
0.433333
0.995833
1.412500
0.445833
0.350000
1.154167
0.437500
0.950000
0.458333
0.345833
0.366667
0.358333
0.366667
1.200000
0.687500
0.579167
0.379167
0.333333
0.395833
0.479167
0.720833
0.570833
0.379167
0.337500
0.429167
0.325000
0.445833
0.362500
0.445833
0.291667
0.554167
0.341667
0.429167
0.333333
0.254167
0.295833
0.312500
0.241667
0.525000
0.683333
0.541667
0.325000
0.441667
0.333333
0.720833
0.266667
0.329167
0.433333
0.633333
0.358333
0.316667
0.854167
0.437500
0.512500
0.558333
0.579167
0.566667
0.370833
0.316667
0.462500
0.333333
0.925000
0.495833
0.358333
0.616667
0.858333
0.850000
0.833333
0.850000
0.433333
0.333333
0.487500
0.345833
1.275000
0.479167
0.450000
0.404167
0.425000
0.429167
0.441667
0.504167
0.354167
0.512500
0.437500
0.479167
0.283333
0.316667
0.829167
0.379167
0.308333
0.445833
0.312500
0.429167
0.887500
0.450000
0.454167
0.470833
0.879167
0.450000
0.487500
0.533333
0.445833
0.450000
0.454167
0.487500
0.487500
0.450000
1.320833
0.633333
0.558333
0.570833
1.262500
0.358333
0.504167
0.350000
1.241667
0.875000
0.420833
0.354167
0.487500
0.812500
0.704167
0.691667
0.558333
0.362500
0.475000
0.854167
0.366667
0.870833
0.845833
0.770833
0.566667
0.408333
0.337500
0.687500
0.429167
0.687500
0.400000
0.354167
0.366667
0.304167
0.987500
0.833333
0.429167
0.520833
0.333333
0.508333
0.162500
0.495833
0.350000
0.358333
0.666667
0.504167
0.425000
0.954167
0.450000
0.337500
1.058333
0.437500
0.762500
0.416667
0.354167
0.391667
0.333333
0.437500
0.408333
0.437500
0.350000
0.429167
0.491667
0.487500
0.441667
0.516667
0.866667
0.466667
0.450000
0.450000
0.366667
0.837500
0.491667
0.495833
0.916667
0.808333
0.608333
0.370833
0.570833
0.512500
0.545833
0.462500
0.475000
0.916667
0.470833
0.483333
0.470833
0.495833
0.458333
0.441667
0.454167
0.441667
0.854167
0.475000
0.483333
0.454167
0.458333
0.916667
0.479167
0.491667
0.475000
0.487500
0.458333
0.841667
0.837500
0.437500
0.483333
0.979167
0.500000
0.479167
0.508333
0.479167
0.495833
0.950000
1.004167
0.466667
0.487500
0.458333
0.954167
0.791667
0.750000
0.208333
0.558333
0.495833
0.470833
0.754167
0.704167
1.270833
0.641667
0.412500
0.454167
1.370833
0.445833
0.591667
0.354167
0.475000
0.479167
0.937500
0.450000
1.012500
0.470833
0.479167
0.937500
1.008333
0.941667
1.141667
0.870833
0.341667
1.425000
0.458333
0.500000
1.879167
0.920833
0.800000
0.370833
1.145833
0.933333
0.454167
0.337500
0.516667
1.054167
0.429167
0.325000
0.675000
0.383333
0.716667
0.366667
0.325000
0.879167
0.216667
0.887500
0.220833
0.991667
0.387500
0.454167
0.466667
0.816667
0.587500
0.366667
0.466667
0.854167
0.408333
0.437500
0.504167
0.825000
0.495833
0.379167
0.425000
0.337500
0.795833
0.383333
0.437500
0.425000
0.354167
0.716667
0.325000
0.812500
0.475000
0.412500
0.320833
0.570833
0.183333
0.441667
0.279167
1.187500
0.366667
0.462500
0.433333
0.408333
0.325000
0.320833
0.716667
0.716667
0.870833
0.845833
0.425000
0.333333
0.562500
0.387500
0.454167
0.712500
0.429167
0.329167
0.608333
0.300000
0.304167
0.429167
0.308333
0.820833
0.595833
0.383333
0.333333
0.600000
0.383333
0.512500
0.412500
0.404167
0.454167
0.420833
0.366667
0.425000
0.429167
0.425000
0.425000
0.412500
0.420833
0.441667
0.495833
0.825000
0.441667
1.079167
0.458333
0.333333
1.100000
0.462500
0.333333
0.416667
0.408333
0.795833
0.437500
0.716667
0.420833
0.333333
0.750000
0.429167
0.725000
0.441667
0.333333
0.595833
0.375000
0.491667
0.325000
0.366667
0.325000
0.950000
0.454167
0.975000
0.441667
0.991667
0.450000
0.862500
0.129167
0.433333
0.966667
0.437500
0.350000
1.116667
0.425000
0.333333
1.220833
0.441667
1.325000
0.445833
0.341667
0.383333
0.320833
0.345833
0.325000
0.891667
0.441667
0.345833
0.612500
0.437500
0.341667
0.654167
0.416667
0.337500
0.595833
0.212500
0.416667
0.245833
0.504167
0.408333
0.333333
0.825000
0.420833
0.366667
0.404167
0.416667
0.487500
0.420833
0.350000
0.679167
0.620833
0.725000
0.425000
0.345833
0.529167
0.350000
0.312500
0.975000
0.445833
0.345833
0.483333
1.008333
0.445833
0.195833
0.820833
0.441667
0.983333
0.445833
0.608333
0.358333
0.441667
0.333333
0.266667
0.950000
0.425000
0.329167
0.275000
0.787500
0.420833
0.708333
0.420833
0.337500
0.570833
0.412500
0.337500
0.925000
0.441667
0.333333
1.004167
0.445833
0.341667
0.675000
0.433333
0.337500
0.558333
0.425000
0.341667
0.516667
0.970833
0.445833
0.341667
0.579167
0.412500
0.333333
0.641667
0.287500
0.470833
0.212500
0.358333
0.420833
0.345833
0.654167
0.433333
0.666667
0.283333
0.462500
0.441667
0.320833
0.383333
0.445833
0.333333
0.454167
0.483333
0.316667
0.412500
0.520833
0.425000
0.408333
0.487500
0.670833
0.575000
0.225000
0.204167
0.350000
0.620833
0.591667
0.395833
0.241667
0.416667
0.775000
0.550000
0.154167
0.429167
0.329167
0.704167
0.333333
0.420833
0.658333
0.437500
0.345833
0.287500
0.204167
0.337500
0.429167
0.520833
0.595833
0.379167
0.604167
0.404167
0.358333
0.500000
0.350000
0.312500
0.929167
0.662500
0.395833
0.654167
0.775000
0.645833
0.675000
0.387500
0.616667
0.412500
0.358333
0.487500
0.687500
0.429167
0.354167
0.375000
0.345833
0.404167
1.358333
0.441667
0.337500
0.566667
0.745833
0.287500
0.362500
0.345833
0.475000
0.529167
0.387500
0.437500
0.483333
0.433333
0.445833
0.445833
0.350000
0.445833
0.358333
0.470833
1.000000
0.462500
0.454167
0.445833
0.479167
0.450000
0.479167
0.450000
0.425000
0.441667
0.412500
0.487500
0.462500
0.437500
0.466667
0.508333
0.412500
0.450000
0.504167
0.475000
0.462500
0.495833
0.483333
0.470833
0.487500
0.470833
0.495833
0.500000
0.475000
0.470833
0.487500
0.491667
0.483333
0.500000
0.466667
0.462500
0.462500
0.479167
0.500000
0.454167
0.458333
0.462500
0.479167
0.462500
0.445833
0.458333
0.479167
0.495833
0.450000
0.470833
0.450000
0.450000
0.466667
0.454167
0.491667
0.441667
0.470833
0.441667
0.475000
0.500000
0.462500
0.445833
0.450000
0.483333
0.475000
0.483333
0.487500
0.466667
0.508333
0.483333
0.487500
0.483333
0.470833
0.487500
0.483333
0.475000
0.483333
0.462500
0.475000
0.450000
0.466667
0.541667
0.354167
0.450000
0.462500
0.479167
0.475000
0.479167
0.470833
0.483333
0.462500
0.475000
0.479167
0.491667
0.945833
0.716667
0.704167
0.466667
0.475000
0.491667
0.445833
0.237500
0.262500
0.454167
0.962500
0.479167
0.479167
0.958333
0.975000
0.445833
0.275000
0.604167
0.516667
0.454167
0.466667
0.483333
0.962500
0.475000
0.516667
0.450000
0.216667
0.679167
0.466667
0.258333
0.237500
0.987500
0.454167
0.937500
0.500000
0.429167
0.495833
0.475000
1.083333
0.337500
0.520833
0.470833
0.479167
0.954167
0.491667
0.483333
0.487500
0.183333
0.283333
0.300000
0.375000
0.504167
0.266667
0.487500
0.508333
0.441667
0.516667
0.504167
0.470833
0.541667
0.408333
0.508333
0.462500
0.466667
0.950000
0.970833
0.487500
0.495833
0.466667
0.975000
0.479167
0.487500
0.479167
0.483333
0.487500
0.970833
0.491667
0.483333
0.491667
0.487500
0.933333
0.475000
0.491667
0.487500
0.483333
0.483333
0.495833
0.970833
0.495833
0.483333
0.487500
0.495833
0.479167
0.954167
0.500000
0.487500
0.487500
0.487500
0.491667
0.950000
0.516667
0.466667
0.479167
0.445833
0.504167
0.466667
0.491667
0.487500
0.487500
0.475000
0.495833
0.491667
0.470833
0.487500
0.495833
0.487500
0.487500
0.487500
0.483333
0.487500
0.475000
0.495833
0.495833
0.412500
0.454167
0.516667
0.450000
0.491667
0.470833
0.462500
0.520833
0.458333
0.500000
0.466667
0.458333
0.512500
0.475000
0.491667
0.483333
0.495833
0.470833
0.475000
0.466667
0.491667
0.495833
0.487500
0.479167
0.500000
0.483333
0.479167
0.475000
0.504167
0.487500
0.475000
0.495833
0.495833
0.491667
0.479167
0.479167
0.479167
0.495833
0.487500
0.483333
0.487500
0.491667
0.487500
0.470833
0.475000
0.491667
0.487500
0.491667
0.487500
0.483333
0.491667
0.487500
0.487500
0.487500
0.483333
0.500000
0.475000
0.466667
0.487500
0.483333
0.500000
0.483333
0.479167
0.487500
0.483333
0.475000
0.479167
0.475000
0.466667
0.479167
0.479167
0.487500
0.483333
0.495833
0.487500
0.500000
0.487500
0.479167
0.487500
0.479167
0.491667
0.487500
0.487500
0.487500
0.487500
0.487500
0.479167
0.470833
0.495833
0.483333
0.491667
0.487500
0.470833
0.679167
0.266667
0.466667
0.479167
0.420833
0.083333
0.179167
0.316667
0.495833
0.466667
0.491667
0.491667
0.558333
0.437500
0.462500
0.462500
0.479167
0.329167
0.145833
0.504167
0.470833
0.491667
0.475000
0.475000
0.504167
0.495833
0.495833
0.470833
0.495833
0.479167
0.470833
0.504167
0.454167
0.487500
0.975000
0.491667
0.491667
0.491667
0.500000
0.479167
0.487500
0.616667
0.375000
0.433333
0.483333
0.483333
0.495833
0.495833
0.475000
0.483333
0.491667
0.462500
0.533333
0.537500
0.908333
0.487500
0.404167
0.429167
0.387500
0.479167
0.404167
0.520833
0.433333
0.408333
0.916667
0.583333
0.358333
1.083333
0.262500
0.408333
0.820833
0.566667
0.379167
0.470833
0.412500
0.883333
0.745833
0.808333
1.270833
0.941667
0.620833
1.016667
0.858333
0.708333
1.254167
0.850000
1.012500
0.483333
0.750000
0.366667
0.450000
0.787500
0.387500
0.429167
1.004167
0.375000
0.333333
0.662500
0.375000
0.325000
0.625000
0.404167
0.345833
0.400000
0.633333
0.337500
0.979167
0.375000
1.020833
0.383333
0.437500
0.441667
1.012500
0.929167
0.433333
0.550000
0.375000
1.037500
0.433333
0.354167
0.558333
0.391667
0.812500
0.379167
0.350000
0.683333
0.658333
0.358333
0.316667
0.933333
0.429167
0.358333
0.520833
1.004167
0.445833
0.358333
0.466667
0.204167
0.754167
0.458333
0.050000
0.904167
0.433333
0.370833
0.650000
0.500000
0.441667
0.450000
0.504167
0.320833
0.579167
0.404167
0.508333
0.558333
0.245833
0.154167
1.004167
0.441667
0.337500
0.579167
0.366667
0.487500
0.404167
0.945833
0.441667
0.966667
0.445833
0.429167
0.541667
0.437500
0.345833
0.375000
0.145833
0.458333
0.220833
0.358333
0.566667
0.116667
0.629167
0.425000
0.204167
0.475000
0.554167
0.316667
0.387500
0.537500
0.458333
0.570833
0.625000
1.095833
0.512500
0.279167
0.554167
0.770833
0.554167
0.433333
0.337500
0.262500
0.433333
0.412500
0.350000
0.562500
0.420833
0.350000
0.287500
0.329167
0.608333
0.291667
0.462500
0.341667
0.570833
0.433333
0.337500
0.637500
0.437500
0.345833
