0.545833
0.545833
0.545833
0.545833
0.550000
0.554167
0.541667
0.329167
0.220833
0.545833
0.554167
0.554167
0.545833
0.550000
0.550000
0.558333
0.545833
0.545833
0.554167
0.554167
0.550000
0.550000
0.554167
0.554167
0.550000
0.550000
0.550000
0.554167
0.558333
0.550000
0.550000
0.550000
0.554167
0.554167
0.558333
0.550000
0.550000
0.550000
0.554167
0.558333
0.550000
0.554167
0.550000
0.554167
0.558333
0.550000
0.554167
0.550000
0.558333
0.554167
0.550000
0.545833
0.554167
0.554167
0.550000
0.550000
0.550000
0.558333
0.550000
0.554167
0.550000
0.554167
0.554167
0.554167
0.554167
0.550000
0.554167
0.558333
0.550000
0.550000
0.550000
0.554167
0.558333
0.550000
0.550000
0.550000
0.550000
0.558333
0.554167
0.550000
0.554167
0.550000
0.558333
0.554167
0.550000
0.554167
0.554167
0.554167
0.550000
0.558333
0.550000
0.554167
0.554167
0.550000
0.550000
0.554167
0.554167
0.550000
0.545833
0.550000
0.554167
0.554167
0.545833
0.550000
0.550000
0.550000
0.558333
0.550000
0.545833
0.550000
0.550000
0.550000
0.558333
0.545833
0.554167
0.550000
0.554167
0.554167
0.550000
0.550000
0.550000
0.550000
0.558333
0.550000
0.550000
0.550000
0.554167
0.550000
0.550000
0.550000
0.554167
0.558333
0.550000
0.554167
0.554167
0.558333
0.554167
0.554167
0.550000
0.558333
0.558333
0.554167
0.554167
0.554167
0.558333
0.554167
0.554167
0.554167
0.558333
0.554167
0.550000
0.554167
0.554167
0.558333
0.558333
0.558333
0.558333
0.558333
0.562500
0.554167
0.333333
0.225000
0.554167
0.558333
0.558333
0.558333
0.554167
0.558333
0.566667
0.554167
0.550000
0.558333
0.558333
0.558333
0.554167
0.550000
0.558333
0.558333
0.554167
0.554167
0.550000
0.554167
0.558333
0.550000
0.554167
0.550000
0.554167
0.554167
0.550000
0.550000
0.554167
0.558333
0.550000
0.550000
0.554167
0.550000
0.558333
0.550000
0.550000
0.550000
0.550000
0.558333
0.550000
0.550000
0.550000
0.554167
0.554167
0.550000
0.554167
0.550000
0.554167
0.558333
0.554167
0.550000
0.554167
0.558333
0.558333
0.554167
0.554167
0.554167
0.558333
0.554167
0.229167
0.325000
0.554167
0.558333
0.554167
0.562500
0.550000
0.554167
0.554167
0.558333
0.558333
0.554167
0.550000
0.550000
0.558333
0.550000
0.554167
0.550000
0.550000
0.554167
0.554167
0.550000
0.554167
0.554167
0.554167
0.558333
0.550000
0.554167
0.550000
0.554167
0.554167
0.554167
0.550000
0.554167
0.554167
0.558333
0.550000
0.554167
0.554167
0.558333
0.554167
0.554167
0.554167
0.554167
0.558333
0.554167
0.554167
0.554167
0.550000
0.562500
0.554167
0.554167
0.554167
0.558333
0.558333
0.554167
0.550000
0.558333
0.558333
0.554167
0.554167
0.554167
0.558333
0.554167
0.550000
0.554167
0.558333
0.554167
0.550000
0.550000
0.554167
0.558333
0.550000
0.550000
0.550000
0.550000
0.558333
0.550000
0.545833
0.550000
0.554167
0.554167
0.550000
0.550000
0.550000
0.554167
0.558333
0.550000
0.550000
0.550000
0.554167
0.554167
0.550000
0.550000
0.554167
0.554167
0.554167
0.550000
0.829167
0.275000
0.554167
0.558333
0.550000
0.550000
0.554167
0.558333
0.554167
0.550000
0.554167
0.550000
0.558333
0.550000
0.554167
0.550000
0.554167
0.554167
0.558333
0.550000
0.554167
0.554167
0.554167
0.558333
0.554167
0.554167
0.554167
0.554167
0.562500
0.554167
0.558333
0.554167
0.558333
0.558333
0.558333
0.562500
0.558333
0.566667
0.558333
0.558333
0.558333
0.562500
0.562500
0.558333
0.558333
0.558333
0.562500
0.562500
0.554167
0.554167
0.562500
0.562500
0.554167
0.558333
0.554167
0.558333
0.562500
0.550000
0.554167
0.554167
0.562500
0.550000
0.550000
0.554167
0.558333
0.550000
0.550000
0.554167
0.550000
0.554167
0.554167
0.404167
0.150000
0.554167
0.545833
0.558333
0.554167
0.550000
0.550000
0.554167
0.558333
0.554167
0.550000
0.558333
0.554167
0.558333
0.554167
0.554167
0.554167
0.558333
0.558333
0.558333
0.554167
0.558333
0.262500
0.295833
0.562500
0.554167
0.558333
0.558333
0.337500
0.225000
0.695833
0.408333
0.216667
0.337500
0.570833
0.541667
0.554167
0.554167
0.400000
0.120833
0.587500
0.558333
0.550000
0.675000
0.429167
0.550000
0.379167
0.170833
0.550000
0.550000
0.570833
0.533333
0.550000
0.545833
0.554167
0.545833
0.550000
0.545833
0.550000
0.550000
0.554167
0.550000
0.545833
0.550000
0.554167
0.550000
0.550000
0.550000
0.558333
0.550000
0.550000
0.554167
0.550000
0.558333
0.550000
0.141667
0.408333
0.320833
0.233333
0.550000
0.554167
0.554167
0.554167
0.550000
0.550000
0.558333
0.554167
0.670833
0.433333
0.562500
0.550000
0.554167
0.554167
0.554167
0.208333
0.350000
0.554167
0.554167
0.558333
0.558333
0.554167
0.554167
0.558333
0.558333
0.554167
0.558333
0.554167
0.558333
0.558333
0.554167
0.554167
0.554167
0.562500
0.554167
0.550000
0.554167
0.558333
0.562500
0.550000
0.554167
0.554167
0.554167
0.562500
0.554167
0.550000
0.558333
0.558333
0.554167
0.550000
0.554167
0.558333
0.550000
0.554167
0.550000
0.554167
0.558333
0.554167
0.550000
0.550000
0.558333
0.550000
0.554167
0.554167
0.554167
0.554167
0.550000
0.554167
0.550000
0.558333
0.554167
0.550000
0.550000
0.558333
0.554167
0.550000
0.554167
0.554167
0.558333
0.554167
0.550000
0.554167
0.554167
0.558333
0.550000
0.550000
0.554167
0.554167
0.554167
0.554167
0.550000
0.554167
0.558333
0.550000
0.550000
0.550000
0.554167
0.558333
0.554167
0.550000
0.558333
0.558333
0.554167
0.550000
0.554167
0.558333
0.554167
0.554167
0.550000
0.554167
0.558333
0.550000
0.550000
0.554167
0.554167
0.550000
0.550000
0.550000
0.554167
0.558333
0.550000
0.554167
0.550000
0.550000
0.554167
0.554167
0.550000
0.554167
0.550000
0.550000
0.554167
0.558333
0.266667
0.283333
0.550000
0.550000
0.550000
0.554167
0.554167
0.554167
0.550000
0.204167
0.345833
0.554167
0.554167
0.550000
0.554167
0.550000
0.558333
0.554167
0.550000
0.550000
0.554167
0.558333
0.558333
0.550000
0.550000
0.554167
0.550000
0.558333
0.558333
0.554167
0.554167
0.550000
0.558333
0.554167
0.554167
0.550000
0.554167
0.562500
0.550000
0.554167
0.554167
0.554167
0.150000
0.420833
0.295833
0.241667
0.558333
0.554167
0.554167
0.554167
0.550000
0.558333
0.558333
0.554167
0.554167
0.554167
0.558333
0.554167
0.554167
0.554167
0.562500
0.554167
0.554167
0.558333
0.554167
0.554167
0.554167
0.554167
0.554167
0.554167
0.554167
0.558333
0.558333
0.554167
0.550000
0.554167
0.558333
0.554167
0.550000
0.550000
0.554167
0.558333
0.550000
0.550000
0.550000
0.558333
0.545833
0.550000
0.550000
0.554167
0.554167
0.545833
0.550000
0.550000
0.558333
0.545833
0.554167
0.550000
0.550000
0.554167
0.558333
0.550000
0.550000
0.554167
0.554167
0.554167
0.554167
0.250000
0.337500
0.520833
0.550000
0.550000
0.554167
0.558333
0.554167
0.216667
0.333333
0.550000
0.558333
0.554167
0.554167
0.554167
0.687500
0.795833
0.183333
0.550000
0.554167
0.558333
0.550000
0.550000
0.554167
0.558333
0.545833
0.550000
0.554167
0.554167
0.550000
0.550000
0.550000
0.554167
0.545833
0.550000
0.550000
0.654167
0.141667
0.579167
0.429167
0.370833
0.458333
0.716667
0.500000
0.275000
0.600000
0.758333
0.316667
0.783333
0.550000
0.541667
0.550000
0.554167
0.545833
0.545833
0.545833
0.554167
0.550000
0.545833
0.541667
0.550000
0.554167
0.545833
0.545833
0.545833
0.550000
0.554167
0.550000
0.545833
0.545833
0.545833
0.554167
0.545833
0.545833
0.545833
0.545833
0.554167
0.545833
0.545833
0.545833
0.545833
0.554167
0.545833
0.545833
0.545833
0.550000
0.550000
0.545833
0.545833
0.550000
0.550000
0.550000
0.545833
0.545833
0.545833
0.554167
0.550000
0.545833
0.545833
0.550000
0.554167
0.550000
0.550000
0.545833
0.550000
0.554167
0.545833
0.550000
0.545833
0.550000
0.550000
0.554167
0.550000
0.550000
0.550000
0.550000
0.554167
0.554167
0.550000
0.550000
0.554167
0.554167
0.550000
0.550000
0.554167
0.550000
0.554167
0.558333
0.550000
0.554167
0.550000
0.558333
0.558333
0.550000
0.554167
0.550000
0.554167
0.554167
0.545833
0.550000
0.554167
0.554167
0.550000
0.545833
0.550000
0.558333
0.545833
0.550000
0.545833
0.550000
0.558333
0.550000
0.545833
0.550000
0.550000
0.554167
0.545833
0.550000
0.550000
0.550000
0.550000
0.550000
0.550000
0.550000
0.554167
0.550000
0.550000
0.550000
0.550000
0.558333
0.550000
0.550000
0.554167
0.550000
0.554167
0.554167
0.550000
0.554167
0.558333
0.550000
0.550000
0.550000
0.558333
0.550000
0.550000
0.550000
0.554167
0.554167
0.550000
0.550000
0.550000
0.550000
0.558333
0.545833
0.550000
0.545833
0.554167
0.554167
0.550000
0.545833
0.545833
0.550000
0.545833
0.554167
0.550000
0.545833
0.541667
0.558333
0.541667
0.545833
0.541667
0.545833
0.550000
0.550000
0.541667
0.545833
0.550000
0.545833
0.550000
0.545833
0.545833
0.545833
0.554167
0.550000
0.550000
0.550000
0.545833
0.554167
0.550000
0.550000
0.550000
0.550000
0.558333
0.550000
0.550000
0.554167
0.554167
0.554167
0.558333
0.558333
0.545833
0.554167
0.558333
0.558333
0.550000
0.550000
0.558333
0.558333
0.550000
0.550000
0.554167
0.554167
0.558333
0.550000
0.550000
0.554167
0.554167
0.316667
0.233333
0.550000
0.550000
0.550000
0.558333
0.545833
0.550000
0.554167
0.554167
0.550000
0.550000
0.550000
0.550000
0.554167
0.554167
0.550000
0.550000
0.550000
0.550000
0.554167
0.550000
0.550000
0.550000
0.554167
0.554167
0.554167
0.550000
0.550000
0.550000
0.554167
0.545833
0.550000
0.550000
0.550000
0.550000
0.558333
0.545833
0.550000
0.550000
0.554167
0.545833
0.554167
0.545833
0.554167
0.554167
0.541667
0.558333
0.550000
0.550000
0.554167
0.445833
0.662500
0.550000
0.554167
0.550000
0.554167
0.554167
0.550000
0.554167
0.558333
0.554167
0.554167
0.554167
0.558333
0.558333
0.554167
0.550000
0.558333
0.558333
0.554167
0.550000
0.554167
0.554167
0.558333
0.558333
0.550000
0.550000
0.550000
0.558333
0.554167
0.550000
0.545833
0.550000
0.554167
0.550000
0.550000
0.545833
0.554167
0.554167
0.550000
0.550000
0.550000
0.554167
0.550000
0.550000
0.545833
0.550000
0.554167
0.545833
0.550000
0.550000
0.550000
0.554167
0.266667
0.283333
0.333333
0.233333
0.537500
0.566667
0.537500
0.550000
0.545833
0.554167
0.554167
0.550000
0.550000
0.550000
0.554167
0.558333
0.554167
0.550000
0.550000
0.558333
0.554167
0.554167
0.554167
0.554167
0.558333
0.554167
0.550000
0.550000
0.550000
0.554167
0.558333
0.550000
0.550000
0.550000
0.554167
0.558333
0.550000
0.545833
0.554167
0.554167
0.554167
0.550000
0.550000
0.554167
0.554167
0.554167
0.550000
0.550000
0.550000
0.554167
0.550000
0.550000
0.550000
0.554167
0.550000
0.550000
0.550000
0.550000
0.558333
0.545833
0.550000
0.550000
0.554167
0.558333
0.550000
0.550000
0.554167
0.558333
0.250000
0.300000
0.550000
0.550000
0.558333
0.550000
0.550000
0.550000
0.558333
0.550000
0.550000
0.550000
