0.366667
0.366667
0.362500
0.370833
0.366667
0.362500
0.366667
0.362500
0.366667
0.370833
0.366667
0.366667
0.362500
0.366667
0.366667
0.366667
0.366667
0.379167
0.366667
0.354167
0.366667
0.375000
0.362500
0.366667
0.370833
0.370833
0.358333
0.370833
0.366667
0.366667
0.362500
0.366667
0.370833
0.366667
0.366667
0.370833
0.354167
0.370833
0.366667
0.370833
0.370833
0.358333
0.370833
0.370833
0.362500
0.358333
0.362500
0.362500
0.366667
0.362500
0.362500
0.370833
0.362500
0.354167
0.366667
0.362500
0.354167
0.370833
0.370833
0.358333
0.354167
0.358333
1.537500
1.133333
0.995833
0.954167
0.950000
0.941667
0.950000
0.929167
0.929167
0.937500
0.833333
1.016667
0.929167
0.833333
0.920833
0.920833
1.012500
0.825000
0.920833
0.916667
0.916667
0.912500
0.904167
0.466667
0.841667
0.437500
0.316667
0.320833
0.341667
0.341667
0.341667
0.329167
0.325000
0.341667
0.354167
0.375000
0.395833
0.454167
0.258333
0.462500
0.350000
0.341667
0.408333
0.387500
0.366667
0.337500
0.337500
0.350000
0.362500
0.345833
0.358333
0.358333
0.333333
0.345833
0.358333
0.533333
0.445833
0.370833
0.325000
0.333333
0.366667
0.362500
0.366667
0.425000
0.375000
0.375000
0.350000
0.291667
0.337500
0.358333
0.325000
0.350000
0.358333
0.358333
0.350000
0.366667
0.370833
0.400000
0.387500
0.566667
0.400000
0.412500
0.441667
0.366667
0.350000
0.341667
0.337500
0.341667
0.354167
0.383333
0.354167
0.366667
0.358333
0.383333
0.379167
0.362500
0.350000
0.383333
0.366667
0.375000
0.395833
0.341667
0.320833
0.462500
0.458333
0.370833
0.400000
0.404167
0.350000
0.391667
0.408333
0.354167
0.366667
0.370833
0.362500
0.366667
0.366667
0.329167
0.537500
0.379167
0.325000
0.333333
0.354167
0.341667
0.366667
0.370833
0.383333
0.354167
0.366667
0.366667
0.366667
0.366667
0.391667
0.554167
0.391667
0.341667
0.358333
0.370833
0.395833
0.375000
0.366667
0.375000
0.358333
0.375000
0.783333
1.429167
0.566667
1.300000
1.054167
0.966667
0.970833
0.958333
0.962500
0.954167
0.945833
0.941667
0.937500
0.912500
0.920833
0.825000
0.991667
0.850000
0.858333
1.241667
0.958333
0.958333
0.945833
0.937500
0.937500
0.933333
0.933333
0.929167
0.929167
0.925000
0.929167
0.470833
0.820833
0.445833
0.633333
0.645833
0.891667
0.612500
0.733333
0.804167
0.700000
0.658333
0.645833
0.750000
0.408333
0.358333
0.345833
0.316667
0.375000
0.366667
0.325000
0.337500
0.350000
0.404167
0.379167
0.545833
0.270833
0.395833
0.375000
0.362500
0.366667
0.366667
0.370833
0.358333
0.550000
0.270833
0.545833
1.362500
1.295833
0.900000
1.337500
0.995833
1.241667
0.487500
0.345833
0.475000
0.408333
0.708333
0.591667
0.758333
0.579167
0.395833
0.354167
0.366667
0.400000
0.470833
0.462500
0.541667
0.387500
0.329167
0.362500
0.366667
0.350000
0.354167
0.400000
0.737500
0.283333
0.350000
0.408333
0.400000
0.345833
0.379167
0.395833
0.337500
0.350000
0.375000
0.350000
0.350000
0.370833
0.412500
0.395833
0.362500
0.362500
0.345833
0.337500
0.350000
0.362500
0.358333
0.437500
0.462500
0.370833
0.387500
0.412500
0.412500
0.375000
0.358333
0.325000
0.312500
0.333333
0.325000
0.366667
0.358333
0.345833
0.333333
0.350000
0.379167
0.354167
0.362500
0.375000
0.345833
0.345833
0.358333
0.333333
0.333333
0.337500
0.354167
0.362500
0.354167
0.362500
0.437500
0.395833
0.383333
0.387500
0.362500
0.337500
0.345833
0.358333
0.354167
0.362500
0.366667
0.375000
0.362500
0.358333
0.366667
0.387500
0.354167
0.341667
0.362500
0.341667
0.375000
0.362500
0.325000
0.333333
0.341667
0.341667
0.237500
0.450000
0.529167
0.362500
0.320833
0.350000
0.358333
0.383333
0.341667
0.354167
0.400000
0.408333
0.337500
0.337500
0.358333
0.366667
0.379167
0.379167
0.387500
0.387500
0.404167
0.375000
0.333333
0.329167
0.358333
0.370833
0.383333
0.354167
0.383333
0.375000
0.441667
0.537500
0.450000
0.458333
0.391667
0.354167
0.358333
0.375000
0.508333
0.362500
0.316667
0.325000
0.354167
0.475000
0.375000
0.329167
0.333333
0.395833
0.387500
0.416667
0.450000
0.354167
0.445833
0.400000
0.366667
0.366667
0.366667
0.354167
0.337500
0.395833
0.366667
0.370833
0.395833
0.433333
0.350000
0.333333
0.350000
0.341667
0.370833
0.366667
0.362500
0.341667
0.341667
0.370833
0.375000
0.379167
0.337500
0.333333
0.354167
0.366667
0.383333
0.441667
0.387500
0.362500
0.366667
0.350000
0.329167
0.337500
0.350000
0.358333
0.383333
0.391667
0.362500
0.354167
0.366667
0.350000
0.370833
0.420833
0.395833
0.333333
0.329167
0.366667
0.400000
0.379167
0.337500
0.350000
0.412500
0.383333
0.354167
0.350000
0.358333
0.437500
0.375000
0.341667
2.020833
1.079167
1.379167
1.158333
0.966667
0.854167
0.991667
1.329167
1.079167
0.870833
0.875000
1.033333
1.250000
0.933333
0.970833
0.958333
0.987500
0.987500
0.983333
0.962500
0.954167
0.945833
0.945833
0.941667
0.470833
0.612500
0.679167
0.308333
0.670833
0.562500
0.762500
0.654167
0.554167
0.654167
0.783333
0.533333
0.612500
0.933333
1.620833
0.858333
0.412500
0.404167
0.787500
0.445833
0.366667
0.350000
0.345833
0.320833
0.316667
0.529167
0.391667
0.333333
0.362500
0.379167
0.354167
0.333333
0.337500
0.320833
0.312500
0.366667
0.433333
0.408333
0.370833
0.362500
0.358333
0.358333
0.354167
0.445833
0.479167
0.391667
0.333333
0.358333
0.470833
0.375000
0.316667
0.375000
0.370833
0.504167
0.416667
0.366667
0.362500
0.354167
0.370833
0.366667
0.362500
0.350000
0.337500
0.350000
0.379167
0.391667
0.362500
0.350000
0.350000
0.354167
0.366667
0.358333
0.366667
0.366667
0.366667
0.391667
0.383333
0.550000
0.491667
0.387500
0.383333
0.366667
0.341667
0.345833
0.358333
0.358333
0.333333
0.379167
0.391667
0.404167
0.375000
0.366667
0.383333
0.366667
0.400000
0.341667
0.329167
0.358333
0.354167
0.337500
0.387500
0.425000
0.370833
0.345833
0.354167
0.362500
0.358333
0.333333
0.350000
0.375000
0.341667
0.366667
0.383333
0.370833
0.366667
0.429167
0.441667
0.375000
0.408333
0.370833
0.350000
0.341667
0.337500
0.362500
0.366667
0.350000
0.370833
0.383333
0.383333
0.625000
1.741667
1.545833
0.933333
1.300000
1.041667
0.995833
0.983333
0.966667
0.954167
0.954167
0.941667
0.933333
0.908333
0.870833
0.958333
0.900000
1.287500
0.483333
0.354167
0.470833
0.387500
0.554167
0.420833
0.420833
0.487500
0.820833
1.133333
0.462500
0.350000
0.354167
0.366667
0.254167
0.445833
0.404167
0.370833
0.358333
0.366667
0.391667
0.358333
0.241667
0.441667
0.358333
0.400000
0.416667
0.375000
0.362500
0.350000
0.341667
0.375000
0.370833
0.350000
0.350000
0.350000
0.379167
0.245833
0.466667
1.429167
1.458333
0.458333
0.362500
0.362500
0.341667
0.350000
0.362500
0.366667
0.375000
0.375000
0.375000
0.379167
0.400000
0.404167
0.533333
0.395833
0.345833
0.333333
0.391667
0.412500
0.391667
0.358333
0.458333
0.375000
0.395833
0.370833
0.433333
0.404167
0.379167
0.354167
0.345833
0.345833
0.341667
0.583333
0.379167
0.325000
0.350000
0.416667
0.512500
0.495833
0.379167
0.345833
0.333333
0.341667
0.345833
0.341667
0.387500
0.441667
0.408333
0.366667
0.341667
0.358333
0.358333
0.362500
0.391667
0.420833
0.387500
0.366667
0.333333
0.354167
0.362500
0.341667
0.354167
0.600000
0.437500
0.412500
0.375000
0.341667
0.354167
0.387500
0.375000
0.337500
0.325000
0.341667
0.362500
0.362500
0.341667
0.337500
0.354167
0.362500
0.391667
0.387500
0.329167
0.304167
0.350000
0.362500
0.337500
0.370833
0.391667
0.379167
0.383333
0.366667
0.370833
0.370833
0.358333
0.358333
0.358333
0.358333
0.354167
0.354167
0.366667
0.350000
0.387500
0.379167
0.391667
0.391667
0.383333
0.412500
0.416667
0.337500
0.341667
0.354167
0.233333
0.470833
1.729167
1.295833
1.358333
1.050000
1.591667
1.045833
1.366667
1.037500
0.937500
0.920833
1.045833
1.341667
0.995833
0.970833
0.937500
0.941667
0.900000
0.962500
0.850000
0.829167
0.833333
1.308333
0.491667
0.612500
0.729167
0.662500
0.508333
0.404167
0.395833
0.366667
0.370833
0.354167
0.362500
0.420833
0.375000
1.420833
0.970833
1.200000
0.483333
0.612500
0.637500
1.025000
0.725000
0.316667
0.320833
0.429167
0.387500
0.258333
0.775000
0.283333
0.525000
0.395833
0.266667
0.462500
0.358333
0.333333
0.341667
0.450000
0.383333
0.354167
0.491667
0.266667
0.500000
0.395833
0.350000
0.337500
0.325000
0.304167
0.429167
0.391667
0.387500
0.350000
0.341667
0.366667
0.370833
0.370833
0.362500
0.370833
0.375000
0.337500
0.366667
0.387500
0.362500
0.362500
0.366667
0.370833
0.358333
0.325000
0.354167
0.429167
0.375000
0.375000
0.362500
0.358333
0.437500
0.408333
0.370833
0.370833
0.366667
0.345833
0.350000
0.391667
0.383333
0.370833
0.370833
0.404167
1.425000
0.541667
1.679167
0.933333
1.387500
1.033333
0.958333
0.958333
0.916667
0.895833
0.937500
1.320833
0.487500
0.345833
0.379167
0.366667
0.366667
0.370833
0.329167
0.345833
0.362500
0.250000
0.458333
0.354167
0.354167
0.341667
0.341667
0.391667
0.400000
0.387500
0.333333
0.350000
0.366667
0.350000
0.345833
0.379167
0.250000
0.420833
0.354167
0.358333
0.458333
0.379167
0.395833
0.375000
0.350000
0.362500
0.366667
0.350000
0.333333
0.354167
0.412500
0.379167
0.370833
0.375000
0.370833
0.341667
0.345833
0.362500
0.354167
0.350000
0.362500
0.362500
0.354167
0.375000
0.345833
0.370833
0.370833
0.408333
0.429167
0.345833
0.341667
0.370833
0.375000
0.358333
0.366667
0.362500
0.350000
0.375000
0.470833
0.362500
0.333333
0.454167
0.420833
0.504167
0.400000
1.470833
1.483333
1.091667
0.958333
1.595833
1.029167
1.312500
1.045833
1.016667
1.025000
1.025000
1.000000
0.979167
0.979167
0.966667
0.950000
0.579167
0.233333
0.362500
1.220833
0.475000
0.337500
0.337500
0.337500
0.245833
0.437500
0.362500
0.416667
0.395833
0.366667
0.362500
0.408333
0.354167
0.308333
0.504167
0.437500
0.375000
0.358333
0.383333
0.387500
0.362500
0.358333
0.362500
0.379167
0.450000
0.454167
0.383333
0.370833
0.391667
0.362500
0.329167
0.345833
0.362500
1.658333
0.462500
0.362500
0.345833
0.337500
0.362500
0.358333
0.354167
0.362500
0.387500
0.391667
0.362500
0.366667
0.362500
0.333333
0.350000
0.358333
0.354167
0.333333
0.383333
0.387500
0.391667
0.379167
0.379167
0.412500
0.370833
0.350000
0.362500
0.366667
0.383333
0.366667
0.362500
0.350000
0.350000
0.387500
0.379167
0.379167
0.354167
0.350000
0.404167
0.425000
0.387500
0.362500
0.362500
0.379167
0.387500
0.383333
0.375000
0.387500
0.412500
0.345833
0.333333
0.375000
0.375000
0.366667
0.350000
0.350000
0.341667
0.350000
0.383333
0.370833
0.358333
0.366667
0.391667
0.354167
0.462500
0.383333
0.350000
0.333333
0.379167
0.383333
0.345833
0.329167
0.345833
0.354167
0.387500
0.487500
0.437500
0.383333
0.337500
0.350000
0.333333
0.345833
0.362500
0.362500
0.400000
0.620833
0.483333
0.429167
0.375000
0.383333
0.383333
0.412500
0.433333
0.362500
0.329167
0.358333
0.391667
0.341667
0.370833
0.345833
0.383333
0.387500
0.375000
0.366667
0.391667
0.333333
0.295833
0.375000
0.375000
0.354167
0.350000
0.350000
0.345833
0.379167
0.479167
0.395833
0.375000
0.458333
0.391667
0.370833
0.358333
0.400000
0.370833
0.366667
0.358333
0.362500
0.341667
0.379167
0.354167
0.337500
0.370833
1.495833
1.491667
1.066667
1.095833
0.941667
1.316667
1.058333
1.275000
1.062500
1.029167
1.029167
1.012500
1.000000
0.979167
0.958333
0.950000
0.933333
0.891667
0.870833
0.816667
1.329167
0.491667
0.666667
0.687500
1.291667
0.483333
0.350000
0.391667
0.391667
0.370833
0.337500
0.337500
0.354167
0.354167
0.345833
0.370833
0.370833
0.345833
0.350000
0.341667
0.237500
0.462500
0.383333
0.379167
0.370833
0.391667
0.429167
0.391667
0.375000
0.366667
0.341667
0.312500
0.291667
0.379167
0.383333
0.354167
0.325000
0.420833
0.395833
0.354167
0.350000
0.358333
0.454167
0.379167
0.329167
0.354167
0.362500
0.391667
0.370833
0.379167
0.383333
0.370833
0.362500
0.370833
0.350000
0.333333
0.341667
0.383333
0.379167
0.383333
0.375000
0.395833
0.375000
0.387500
0.412500
0.375000
0.358333
0.337500
0.354167
0.341667
0.345833
0.445833
0.466667
0.466667
0.362500
0.333333
