0.391667
0.362500
0.350000
0.350000
0.375000
0.375000
0.375000
0.366667
0.366667
0.366667
0.375000
0.345833
0.341667
0.366667
0.358333
0.362500
0.358333
0.341667
0.362500
0.404167
0.383333
0.391667
0.370833
0.391667
0.429167
2.195833
1.645833
1.104167
1.354167
1.079167
0.979167
0.954167
0.962500
0.941667
0.958333
0.945833
0.945833
0.941667
0.941667
0.941667
0.933333
0.933333
0.933333
0.933333
0.933333
0.929167
0.929167
0.933333
0.925000
0.920833
0.925000
0.829167
1.016667
0.912500
0.833333
1.012500
0.829167
1.012500
0.354167
0.337500
0.329167
0.308333
0.333333
0.333333
0.312500
0.312500
0.329167
0.629167
0.616667
0.312500
1.212500
0.975000
0.958333
0.450000
0.370833
0.354167
0.329167
0.637500
0.287500
0.312500
0.345833
1.575000
0.470833
0.362500
0.341667
0.350000
0.370833
0.354167
0.350000
0.350000
0.362500
0.379167
0.379167
0.375000
0.412500
0.379167
0.366667
0.362500
0.412500
0.391667
0.354167
0.341667
0.354167
0.366667
0.366667
0.354167
0.350000
0.366667
0.362500
0.395833
0.383333
0.379167
0.383333
0.370833
0.362500
0.370833
0.395833
0.370833
0.379167
0.375000
0.370833
0.362500
0.375000
0.379167
0.370833
0.370833
0.358333
0.354167
0.362500
0.395833
0.358333
0.366667
0.370833
0.395833
0.383333
0.337500
0.354167
0.404167
0.379167
0.450000
0.254167
0.500000
0.362500
0.395833
0.395833
0.366667
0.350000
0.404167
0.395833
0.383333
0.391667
0.366667
0.245833
0.783333
0.370833
0.375000
0.350000
0.329167
0.337500
0.370833
0.345833
0.375000
0.387500
0.375000
0.358333
0.358333
0.358333
0.354167
0.379167
0.370833
0.375000
0.379167
0.387500
0.379167
0.391667
0.412500
0.658333
0.291667
0.370833
0.391667
0.358333
0.383333
0.379167
0.412500
0.400000
0.341667
0.320833
0.362500
0.366667
0.366667
0.358333
0.320833
0.333333
0.387500
0.375000
0.375000
0.366667
0.366667
0.383333
0.375000
0.370833
0.404167
0.441667
0.433333
0.362500
0.391667
0.704167
0.370833
1.391667
1.345833
1.466667
1.279167
1.108333
1.008333
1.000000
0.958333
0.966667
0.962500
0.941667
0.962500
0.950000
0.937500
0.945833
0.937500
0.937500
0.933333
0.929167
0.925000
0.929167
0.925000
0.912500
0.350000
0.341667
0.341667
1.833333
0.470833
0.341667
0.320833
0.345833
0.429167
0.412500
1.558333
0.462500
0.350000
0.329167
0.350000
0.379167
0.379167
0.341667
0.308333
0.362500
0.620833
1.291667
0.462500
0.358333
0.350000
0.645833
0.495833
0.304167
1.333333
0.462500
0.362500
0.333333
0.341667
0.354167
0.358333
0.400000
0.412500
0.395833
0.379167
0.362500
0.354167
0.350000
0.354167
0.370833
0.379167
0.387500
0.358333
0.366667
0.379167
0.379167
0.379167
0.379167
0.366667
0.375000
0.412500
0.570833
1.337500
0.458333
0.362500
0.354167
0.350000
0.379167
0.254167
0.475000
0.375000
0.358333
0.383333
0.379167
0.362500
0.333333
0.354167
0.383333
0.387500
0.370833
0.358333
0.358333
0.370833
0.375000
0.354167
0.362500
0.395833
0.375000
0.241667
0.545833
0.337500
0.366667
0.387500
0.379167
0.358333
0.400000
0.350000
0.345833
0.437500
0.387500
0.362500
0.387500
0.387500
0.395833
0.383333
0.375000
0.362500
0.375000
0.350000
0.358333
0.370833
0.345833
0.370833
0.387500
0.366667
0.404167
0.404167
0.366667
0.337500
0.341667
0.375000
0.391667
0.358333
0.404167
0.404167
0.362500
0.341667
0.354167
0.391667
0.245833
0.533333
0.366667
0.358333
0.379167
0.375000
0.358333
0.362500
0.370833
0.370833
0.375000
0.375000
0.362500
0.354167
0.358333
0.387500
0.420833
0.391667
0.379167
0.345833
0.241667
0.437500
0.329167
0.370833
0.391667
0.383333
0.379167
0.337500
0.366667
0.375000
0.370833
0.408333
0.366667
0.375000
0.375000
0.366667
0.362500
0.345833
0.375000
0.370833
0.358333
0.358333
0.370833
0.383333
0.375000
0.658333
0.404167
0.441667
0.395833
0.350000
0.400000
0.408333
0.358333
0.379167
0.329167
0.350000
0.375000
0.358333
0.362500
0.370833
0.391667
0.375000
0.358333
0.345833
0.379167
0.437500
0.400000
0.358333
0.387500
0.650000
0.404167
0.375000
0.437500
0.375000
0.345833
0.375000
0.366667
0.820833
0.325000
1.404167
1.441667
1.162500
0.987500
1.029167
1.258333
1.087500
0.954167
0.941667
0.904167
1.104167
1.187500
1.070833
0.954167
0.962500
0.854167
1.033333
0.933333
0.937500
0.929167
0.933333
0.837500
1.020833
0.925000
0.925000
0.925000
0.920833
0.920833
0.358333
0.333333
0.300000
0.737500
0.700000
0.170833
0.537500
0.391667
0.608333
1.295833
0.466667
0.341667
0.370833
0.341667
0.320833
0.354167
0.345833
0.345833
0.341667
0.337500
0.354167
0.383333
0.370833
0.354167
0.350000
0.329167
1.866667
0.462500
0.345833
0.362500
0.383333
0.979167
1.262500
0.470833
0.337500
0.366667
0.379167
1.075000
0.566667
0.225000
0.341667
0.375000
0.375000
0.341667
0.583333
1.391667
0.458333
0.350000
0.325000
0.537500
1.500000
0.462500
0.350000
0.337500
0.370833
0.366667
0.412500
1.600000
0.475000
0.366667
0.345833
0.358333
0.379167
0.370833
0.362500
0.366667
0.370833
0.370833
0.362500
0.370833
0.379167
0.370833
0.375000
0.366667
0.379167
0.370833
0.375000
0.370833
0.375000
0.375000
0.370833
0.375000
0.375000
0.375000
0.370833
0.375000
0.375000
0.370833
1.204167
0.466667
0.370833
0.337500
0.383333
0.395833
0.358333
0.354167
0.370833
0.379167
0.370833
0.375000
0.370833
0.370833
0.366667
0.383333
0.370833
0.370833
0.370833
0.379167
0.370833
0.370833
0.375000
1.487500
0.475000
0.370833
0.341667
1.045833
0.450000
0.366667
0.362500
0.345833
0.354167
0.387500
0.383333
0.362500
0.354167
0.383333
0.362500
0.433333
0.383333
0.370833
0.375000
0.458333
0.400000
0.370833
0.362500
1.829167
0.466667
0.383333
0.366667
0.458333
0.383333
0.366667
1.504167
0.458333
0.391667
0.387500
0.358333
0.383333
0.420833
0.375000
0.370833
0.362500
0.375000
0.358333
0.350000
0.400000
0.375000
0.395833
0.366667
0.387500
0.608333
0.262500
0.362500
0.379167
0.350000
0.387500
0.395833
0.383333
0.358333
0.362500
0.554167
0.275000
0.379167
0.366667
0.366667
0.458333
0.254167
0.491667
0.425000
0.679167
0.254167
1.637500
0.475000
0.370833
0.329167
0.329167
0.391667
0.375000
0.350000
0.358333
0.362500
0.358333
0.358333
0.366667
0.366667
0.362500
1.337500
1.112500
1.095833
0.991667
0.970833
0.975000
0.970833
0.945833
0.933333
0.941667
0.937500
0.862500
0.941667
1.220833
0.595833
0.229167
0.329167
0.362500
0.391667
0.362500
0.329167
0.341667
0.362500
0.366667
0.345833
0.316667
0.295833
0.504167
1.712500
0.458333
0.304167
0.683333
0.729167
1.304167
0.466667
0.354167
0.754167
1.137500
0.454167
0.341667
0.312500
0.337500
0.387500
1.258333
0.454167
0.350000
0.337500
0.412500
0.387500
0.341667
0.400000
1.270833
0.454167
0.345833
0.329167
0.341667
0.420833
0.366667
0.404167
0.666667
0.516667
0.504167
0.533333
0.512500
0.516667
0.520833
0.525000
0.520833
0.520833
0.525000
0.525000
0.520833
0.525000
0.516667
0.529167
0.520833
0.520833
0.525000
0.520833
0.525000
0.529167
0.512500
0.529167
0.516667
0.525000
0.525000
0.516667
0.525000
0.516667
0.525000
0.529167
0.508333
0.529167
0.512500
0.520833
0.525000
0.512500
0.533333
0.512500
0.520833
0.520833
0.508333
0.533333
0.508333
0.520833
0.525000
0.500000
0.533333
0.512500
0.520833
0.495833
0.520833
0.533333
0.512500
0.512500
0.495833
0.491667
0.520833
0.512500
0.512500
0.520833
0.533333
0.504167
0.500000
0.512500
0.520833
0.533333
0.504167
0.504167
0.500000
0.529167
0.504167
0.516667
0.525000
0.520833
0.504167
0.495833
0.508333
0.516667
0.495833
0.520833
0.508333
0.504167
0.520833
0.491667
0.525000
0.508333
0.512500
0.525000
0.491667
0.525000
0.504167
0.516667
0.525000
0.491667
0.525000
0.508333
0.500000
0.525000
0.495833
0.525000
0.508333
0.495833
0.525000
0.495833
0.520833
0.516667
0.491667
0.516667
0.491667
0.520833
0.512500
0.487500
0.520833
0.495833
0.525000
0.525000
0.487500
0.520833
0.495833
0.516667
0.516667
0.491667
0.516667
0.495833
0.508333
0.512500
0.491667
0.516667
0.491667
0.508333
0.512500
0.491667
0.516667
0.491667
0.512500
0.508333
0.504167
0.516667
0.487500
0.516667
0.500000
0.504167
0.516667
0.487500
0.516667
0.495833
0.504167
0.512500
0.491667
0.512500
0.495833
0.504167
0.512500
0.491667
0.512500
0.491667
0.512500
0.504167
0.500000
0.512500
0.491667
0.516667
0.491667
0.508333
0.504167
0.495833
0.508333
0.495833
0.508333
0.504167
0.500000
0.504167
0.495833
0.504167
0.500000
0.504167
0.500000
0.500000
0.504167
0.500000
0.504167
0.500000
0.500000
0.500000
0.500000
0.504167
0.500000
0.500000
0.500000
0.500000
0.504167
0.500000
0.500000
0.504167
0.495833
0.508333
0.495833
0.504167
0.500000
0.500000
0.500000
0.500000
0.504167
0.500000
0.500000
0.500000
0.500000
0.504167
0.500000
0.500000
0.500000
0.500000
0.500000
0.504167
0.500000
0.500000
0.504167
0.495833
0.504167
0.500000
0.500000
0.504167
0.495833
0.504167
0.495833
0.504167
0.500000
0.500000
0.500000
0.500000
0.504167
0.500000
0.500000
0.500000
0.500000
0.500000
0.504167
0.500000
0.500000
0.500000
0.500000
0.500000
0.504167
0.500000
0.500000
0.500000
0.500000
0.500000
0.504167
0.495833
0.500000
0.504167
0.500000
0.504167
0.495833
0.500000
0.504167
0.500000
0.500000
0.500000
0.500000
0.504167
0.495833
0.504167
0.500000
0.500000
0.500000
0.500000
0.504167
0.495833
0.504167
0.495833
0.504167
0.504167
0.495833
0.504167
0.495833
0.504167
0.500000
0.500000
0.504167
0.495833
0.504167
0.495833
0.504167
0.495833
0.500000
0.500000
0.500000
0.504167
0.500000
0.500000
0.495833
0.500000
0.500000
0.504167
0.495833
0.504167
0.495833
0.500000
0.500000
0.504167
0.500000
0.495833
0.504167
0.495833
0.504167
0.500000
0.495833
0.504167
0.491667
0.508333
0.500000
0.500000
0.500000
0.379167
0.620833
0.495833
0.504167
0.500000
0.500000
0.500000
0.495833
0.504167
0.500000
0.500000
0.383333
0.616667
0.500000
0.500000
0.500000
0.500000
0.495833
0.504167
0.500000
0.504167
0.500000
0.491667
0.504167
0.500000
0.500000
0.500000
0.500000
0.500000
0.500000
0.500000
0.500000
0.500000
0.500000
0.500000
0.500000
0.504167
0.495833
0.500000
0.495833
0.504167
0.504167
0.495833
0.500000
0.500000
0.500000
0.500000
0.500000
0.500000
0.495833
0.504167
0.495833
0.504167
0.495833
0.500000
0.504167
0.500000
0.504167
0.495833
0.500000
0.383333
0.616667
0.500000
0.500000
0.504167
0.495833
0.500000
0.500000
0.504167
0.500000
0.500000
0.495833
0.504167
0.504167
0.500000
0.504167
0.491667
0.504167
0.500000
0.500000
0.500000
0.500000
0.500000
0.504167
0.500000
0.500000
0.504167
0.491667
0.504167
0.500000
0.504167
0.500000
0.500000
0.500000
0.500000
0.500000
0.504167
0.500000
0.500000
0.495833
0.504167
0.500000
0.504167
0.495833
0.504167
0.495833
0.504167
0.500000
0.504167
0.500000
0.495833
0.504167
0.500000
0.500000
0.500000
0.504167
0.500000
0.495833
0.504167
0.500000
0.500000
0.495833
0.500000
0.500000
0.504167
0.495833
0.500000
0.500000
0.500000
0.504167
0.495833
0.500000
0.500000
0.500000
0.504167
0.495833
0.504167
0.495833
0.500000
0.504167
0.495833
0.508333
0.491667
0.508333
0.504167
0.491667
0.508333
0.491667
0.508333
0.500000
0.500000
0.504167
0.375000
0.629167
0.495833
0.504167
0.504167
0.487500
0.512500
0.491667
0.508333
0.383333
0.612500
0.508333
0.487500
0.512500
0.491667
0.504167
0.504167
0.491667
0.516667
0.483333
0.512500
0.500000
0.500000
0.516667
0.362500
0.633333
0.491667
0.500000
0.512500
0.483333
0.520833
0.483333
0.504167
0.516667
0.479167
0.520833
0.366667
0.629167
0.504167
0.491667
0.520833
0.362500
0.633333
0.500000
0.487500
