0.525000
0.533333
0.533333
0.529167
0.533333
0.537500
0.533333
0.541667
0.533333
0.541667
0.541667
0.545833
0.537500
0.541667
0.533333
0.541667
0.537500
0.541667
0.537500
0.537500
0.541667
0.545833
0.541667
0.541667
0.545833
0.541667
0.541667
0.545833
0.550000
0.541667
0.545833
0.545833
0.550000
0.550000
0.550000
0.545833
0.558333
0.554167
0.550000
0.554167
0.545833
0.554167
0.541667
0.550000
0.537500
0.537500
0.533333
0.537500
0.533333
0.529167
0.541667
0.533333
0.533333
0.529167
0.529167
0.533333
0.533333
0.533333
0.533333
0.537500
0.537500
0.537500
0.537500
0.541667
0.541667
0.545833
0.541667
0.550000
0.545833
0.545833
0.545833
0.545833
0.550000
0.541667
0.545833
0.554167
0.550000
0.545833
0.545833
0.545833
0.550000
0.541667
0.541667
0.545833
0.541667
0.537500
0.533333
0.537500
0.537500
0.537500
0.537500
0.537500
0.537500
0.533333
0.533333
0.529167
0.533333
0.533333
0.533333
0.533333
0.537500
0.533333
0.533333
0.537500
0.537500
0.533333
0.541667
0.537500
0.541667
0.541667
0.545833
0.545833
0.541667
0.545833
0.550000
0.550000
0.541667
0.508333
0.375000
0.750000
0.541667
0.537500
0.545833
0.541667
0.541667
0.537500
0.545833
0.541667
0.541667
0.541667
0.545833
0.541667
0.537500
0.537500
0.541667
0.541667
0.537500
0.545833
0.537500
0.541667
0.537500
0.537500
0.537500
0.812500
0.608333
0.720833
0.537500
0.541667
0.537500
0.533333
0.537500
0.537500
0.537500
0.533333
0.533333
0.537500
0.537500
0.537500
0.533333
0.541667
0.541667
0.537500
0.541667
0.533333
0.537500
0.533333
0.533333
0.537500
0.533333
0.537500
0.541667
0.537500
0.541667
0.541667
0.537500
0.537500
0.541667
0.541667
0.545833
0.545833
0.545833
0.545833
0.545833
0.550000
0.541667
0.550000
0.554167
0.545833
0.550000
0.550000
0.550000
0.550000
0.550000
0.545833
0.550000
0.550000
0.550000
0.545833
0.545833
0.554167
0.550000
0.554167
0.550000
0.554167
0.554167
0.558333
0.554167
0.554167
0.554167
0.558333
0.554167
0.558333
0.554167
0.558333
0.554167
0.550000
0.141667
0.420833
0.562500
0.208333
0.350000
0.554167
0.554167
0.545833
0.554167
0.550000
0.545833
0.550000
0.541667
0.550000
0.287500
0.254167
0.325000
0.229167
0.537500
0.533333
0.537500
0.529167
0.529167
0.533333
0.533333
0.533333
0.529167
0.533333
0.529167
0.533333
0.533333
0.529167
0.533333
0.533333
0.537500
0.533333
0.541667
0.541667
0.545833
0.545833
0.550000
0.545833
0.679167
0.416667
0.554167
0.545833
0.541667
0.537500
0.541667
0.537500
0.537500
0.537500
0.533333
0.533333
0.537500
0.529167
0.062500
1.004167
0.529167
0.525000
0.525000
0.520833
0.529167
0.525000
0.529167
0.533333
0.533333
0.533333
0.529167
0.529167
0.529167
0.529167
0.533333
0.533333
0.529167
0.533333
0.533333
0.533333
0.533333
0.533333
0.541667
0.537500
0.537500
0.537500
0.541667
0.545833
0.541667
0.537500
0.545833
0.537500
0.541667
0.541667
0.541667
0.545833
0.541667
0.550000
0.541667
0.545833
0.545833
0.545833
0.545833
0.541667
0.545833
0.545833
0.545833
0.545833
0.545833
0.550000
0.554167
0.554167
0.550000
0.554167
0.558333
0.554167
0.558333
0.558333
0.558333
0.558333
0.545833
0.545833
0.554167
0.554167
0.545833
0.554167
0.554167
0.554167
0.554167
0.562500
0.558333
0.566667
0.558333
0.562500
0.558333
0.562500
0.562500
0.570833
0.562500
0.562500
0.558333
0.562500
0.562500
0.562500
0.558333
0.562500
0.566667
0.566667
0.570833
0.570833
0.570833
0.575000
0.562500
0.566667
0.562500
0.558333
0.558333
0.562500
0.562500
0.566667
0.562500
0.562500
0.558333
0.562500
0.558333
0.554167
0.562500
0.558333
0.558333
0.566667
0.562500
0.562500
0.562500
0.562500
0.562500
0.558333
0.558333
0.562500
0.562500
0.562500
0.566667
0.562500
0.558333
0.558333
0.566667
0.562500
0.558333
0.562500
0.566667
0.566667
0.566667
0.566667
0.566667
0.566667
0.570833
0.566667
0.575000
0.570833
0.566667
0.566667
0.570833
0.566667
0.562500
0.562500
0.562500
0.566667
0.562500
0.566667
0.562500
0.562500
0.558333
0.558333
0.566667
0.562500
0.562500
0.562500
0.566667
0.562500
0.566667
0.570833
0.566667
0.570833
0.566667
0.570833
0.570833
0.575000
0.575000
0.575000
0.558333
0.566667
0.558333
0.558333
1.108333
0.550000
0.554167
0.545833
0.550000
0.545833
0.550000
0.541667
0.545833
0.683333
0.408333
0.537500
0.537500
0.541667
0.541667
0.541667
0.541667
0.541667
0.545833
0.541667
0.541667
0.545833
0.541667
0.537500
0.541667
0.541667
0.541667
0.541667
0.216667
0.320833
0.541667
0.537500
0.537500
0.541667
0.537500
0.533333
0.545833
0.533333
0.537500
0.537500
0.537500
0.633333
0.437500
0.533333
0.529167
0.529167
0.533333
0.533333
0.529167
0.533333
0.529167
0.533333
0.529167
0.529167
0.533333
0.533333
0.533333
0.533333
0.537500
0.537500
0.541667
0.541667
0.541667
0.541667
0.545833
0.545833
0.541667
0.541667
0.550000
0.545833
0.550000
0.554167
0.554167
0.554167
0.550000
0.550000
0.550000
0.554167
0.562500
0.512500
0.579167
0.545833
0.545833
0.537500
0.541667
0.541667
0.537500
0.537500
0.541667
0.537500
0.383333
0.216667
0.462500
0.533333
0.537500
0.533333
0.533333
0.529167
0.433333
0.629167
0.533333
0.529167
0.533333
0.533333
0.537500
0.529167
0.533333
0.533333
0.537500
0.529167
0.525000
0.533333
0.529167
0.533333
0.254167
0.416667
0.166667
0.758333
0.533333
1.066667
0.533333
0.529167
0.537500
0.533333
0.537500
0.537500
0.537500
0.533333
0.533333
0.529167
0.529167
0.529167
0.529167
0.533333
0.533333
0.533333
0.537500
0.533333
0.537500
0.537500
0.541667
0.541667
0.545833
0.545833
0.550000
0.545833
0.541667
0.550000
0.550000
0.604167
0.275000
0.383333
0.883333
0.541667
0.533333
0.537500
0.533333
0.537500
0.533333
0.533333
0.533333
0.529167
0.533333
0.529167
0.533333
0.529167
0.533333
0.537500
0.541667
0.537500
0.537500
0.541667
0.541667
0.537500
0.541667
0.537500
0.537500
0.541667
0.541667
0.541667
0.537500
0.550000
0.550000
0.550000
0.550000
0.545833
0.545833
0.554167
0.545833
0.550000
0.541667
0.545833
0.550000
0.558333
0.550000
0.550000
0.558333
0.562500
0.550000
0.554167
0.337500
0.454167
0.712500
0.691667
0.341667
0.200000
0.554167
0.537500
0.541667
0.429167
0.650000
0.545833
0.537500
0.537500
0.537500
0.537500
0.495833
0.562500
0.533333
0.529167
0.525000
0.529167
0.525000
0.525000
0.520833
0.525000
0.529167
0.529167
0.529167
0.525000
0.529167
0.533333
0.533333
0.533333
0.537500
0.545833
0.545833
0.541667
0.541667
0.537500
0.541667
0.550000
0.545833
0.545833
0.550000
0.550000
0.554167
0.545833
0.545833
0.558333
0.554167
0.554167
0.562500
0.550000
0.554167
0.550000
0.550000
0.545833
0.545833
0.545833
0.337500
0.212500
0.545833
0.554167
0.666667
0.429167
0.550000
0.550000
0.441667
0.400000
0.266667
0.533333
0.545833
0.541667
0.537500
0.537500
0.416667
0.379167
0.820833
0.533333
0.537500
0.533333
0.708333
0.079167
0.820833
0.533333
0.525000
0.529167
0.525000
0.525000
0.525000
0.525000
0.525000
0.529167
0.520833
0.525000
0.525000
0.525000
0.520833
0.525000
0.520833
0.520833
0.520833
0.525000
0.525000
0.520833
0.525000
0.525000
0.525000
0.520833
0.520833
0.533333
0.529167
0.529167
0.533333
0.533333
0.529167
0.533333
0.533333
0.537500
0.537500
0.537500
0.545833
0.541667
0.541667
0.545833
0.545833
0.541667
0.550000
0.550000
0.554167
0.550000
0.562500
0.562500
0.554167
0.558333
0.550000
0.550000
0.554167
0.545833
0.545833
0.545833
0.550000
0.545833
0.550000
0.554167
0.550000
0.550000
0.550000
0.554167
0.550000
0.554167
0.554167
0.558333
0.550000
0.554167
0.554167
0.554167
0.550000
0.550000
0.558333
0.550000
0.550000
0.558333
0.554167
0.554167
0.554167
0.558333
0.562500
0.562500
0.558333
0.562500
0.554167
0.554167
0.558333
0.554167
0.562500
0.558333
0.558333
0.554167
0.558333
0.550000
0.550000
0.775000
0.300000
0.325000
0.183333
0.525000
0.379167
0.825000
0.550000
0.550000
0.545833
0.545833
0.550000
0.545833
0.550000
0.541667
0.545833
0.541667
0.541667
0.541667
0.545833
0.550000
0.545833
0.550000
0.545833
0.545833
0.545833
0.550000
0.545833
0.545833
0.550000
0.558333
0.558333
0.562500
0.558333
0.558333
0.558333
0.558333
0.325000
0.237500
0.350000
0.208333
0.312500
0.250000
0.554167
0.320833
0.229167
0.279167
0.270833
0.541667
0.545833
0.545833
0.545833
0.541667
0.541667
0.545833
0.545833
0.545833
0.545833
0.550000
0.545833
0.550000
0.545833
0.554167
0.558333
0.558333
0.554167
0.554167
0.550000
0.558333
0.558333
0.554167
0.550000
0.554167
0.554167
0.558333
0.562500
0.562500
0.558333
0.558333
0.562500
0.562500
0.562500
0.554167
0.558333
0.562500
0.558333
0.554167
0.554167
0.558333
0.554167
0.554167
0.558333
0.554167
0.558333
0.562500
0.566667
0.575000
0.558333
0.566667
0.566667
0.566667
0.562500
0.566667
0.558333
0.566667
0.562500
0.566667
0.566667
0.566667
0.562500
0.566667
0.570833
0.566667
0.562500
0.566667
0.562500
0.558333
0.558333
0.554167
0.558333
0.308333
0.245833
0.558333
0.125000
0.425000
0.550000
0.554167
0.550000
0.554167
0.550000
0.558333
0.554167
0.554167
0.554167
0.554167
0.550000
0.550000
0.550000
0.550000
0.550000
0.550000
0.562500
0.558333
0.558333
0.558333
0.562500
0.562500
0.554167
0.562500
0.558333
0.562500
0.566667
0.566667
0.570833
0.575000
0.566667
0.566667
0.566667
0.570833
0.558333
0.562500
0.566667
0.558333
0.558333
0.562500
0.562500
0.558333
0.558333
0.566667
0.558333
0.570833
0.558333
0.566667
0.570833
0.566667
0.562500
0.562500
0.562500
0.558333
0.554167
0.550000
0.554167
0.550000
0.550000
0.550000
0.554167
0.550000
0.554167
0.550000
0.554167
0.550000
0.558333
0.554167
0.554167
0.554167
0.558333
0.554167
0.562500
0.558333
0.558333
0.562500
0.562500
0.558333
0.562500
0.562500
0.566667
0.566667
0.570833
0.575000
0.558333
0.341667
0.220833
0.433333
0.258333
0.612500
0.387500
0.554167
0.550000
0.554167
0.558333
0.558333
0.554167
0.308333
0.250000
0.554167
0.558333
0.554167
0.554167
0.558333
0.558333
0.554167
0.558333
0.545833
0.558333
0.554167
0.550000
0.550000
0.550000
0.550000
0.545833
0.541667
0.550000
0.550000
0.554167
0.554167
0.554167
0.558333
0.562500
0.558333
0.558333
0.558333
0.558333
0.554167
0.562500
0.558333
0.558333
0.562500
0.558333
0.558333
0.554167
0.562500
0.554167
0.558333
0.558333
0.554167
0.558333
0.554167
0.558333
0.558333
0.554167
0.558333
0.558333
0.566667
0.558333
0.558333
0.558333
0.558333
0.554167
0.458333
0.100000
0.550000
0.504167
0.604167
0.295833
0.379167
0.287500
0.695833
0.550000
0.554167
0.545833
0.550000
0.545833
0.545833
0.545833
0.545833
0.545833
0.550000
0.554167
0.550000
0.554167
0.550000
0.545833
0.412500
0.462500
0.225000
0.545833
0.545833
0.541667
0.700000
0.387500
0.162500
0.379167
0.545833
0.545833
0.541667
0.541667
0.545833
0.541667
0.541667
0.545833
0.541667
0.541667
0.545833
0.541667
0.545833
0.550000
0.541667
0.554167
0.545833
0.550000
0.554167
0.545833
0.554167
