0.287500
0.200000
0.483333
0.483333
0.487500
0.479167
0.325000
0.633333
0.479167
0.483333
0.479167
0.483333
0.475000
0.479167
0.487500
0.487500
0.495833
0.483333
0.483333
0.483333
0.487500
0.483333
0.479167
0.475000
0.270833
0.208333
0.479167
0.479167
0.483333
0.475000
0.479167
0.475000
0.479167
0.487500
0.479167
0.487500
0.479167
0.208333
0.425000
0.320833
0.483333
0.950000
0.475000
0.475000
0.475000
0.475000
0.475000
0.470833
0.479167
0.479167
0.479167
0.479167
0.479167
0.483333
0.483333
0.483333
0.479167
0.850000
0.591667
0.487500
0.475000
0.483333
0.479167
0.483333
0.479167
0.475000
0.479167
0.479167
0.479167
0.479167
0.475000
0.483333
0.479167
0.658333
0.445833
0.329167
0.479167
0.475000
0.470833
0.475000
0.475000
0.670833
0.758333
0.479167
0.475000
0.483333
0.950000
0.475000
0.475000
0.470833
0.475000
0.479167
0.479167
0.475000
0.475000
0.479167
0.479167
0.479167
0.629167
0.529167
0.362500
0.383333
0.487500
0.483333
0.479167
0.483333
0.483333
0.483333
0.487500
0.479167
0.479167
0.479167
0.479167
0.487500
0.475000
0.479167
0.479167
0.483333
0.375000
0.100000
0.641667
0.787500
0.479167
0.475000
0.483333
0.475000
0.475000
0.483333
0.470833
0.475000
0.479167
0.479167
0.475000
0.475000
0.475000
0.475000
0.483333
0.475000
0.475000
0.475000
0.479167
0.479167
0.483333
0.487500
0.479167
0.483333
0.491667
0.487500
0.491667
0.495833
0.500000
0.491667
0.500000
0.429167
0.579167
0.516667
0.520833
0.516667
0.525000
0.470833
0.241667
0.495833
0.341667
0.525000
0.516667
0.516667
0.508333
0.508333
0.508333
0.500000
0.508333
0.516667
0.529167
0.533333
0.533333
0.541667
0.541667
0.550000
0.525000
0.525000
0.512500
0.500000
0.495833
0.491667
0.616667
0.354167
0.491667
0.491667
0.487500
0.483333
0.479167
0.483333
0.483333
0.475000
0.475000
0.479167
0.475000
0.475000
0.470833
0.470833
0.475000
0.479167
0.475000
0.470833
0.475000
0.475000
0.479167
0.470833
0.470833
0.470833
0.470833
0.470833
0.475000
0.479167
0.470833
0.470833
0.470833
0.483333
0.479167
0.479167
0.479167
0.479167
0.470833
0.479167
0.479167
0.558333
0.379167
0.470833
0.470833
0.475000
0.466667
0.470833
0.466667
0.470833
0.475000
0.466667
0.470833
0.470833
0.475000
0.475000
0.470833
0.591667
0.354167
0.291667
0.662500
0.479167
0.470833
0.470833
0.479167
0.475000
0.475000
0.479167
0.470833
0.470833
0.470833
0.475000
0.475000
0.466667
0.475000
0.466667
0.462500
0.479167
0.483333
0.483333
0.479167
0.479167
0.479167
0.475000
0.475000
0.475000
0.470833
0.470833
0.475000
0.470833
0.470833
0.470833
0.475000
0.470833
0.475000
0.487500
0.487500
0.495833
0.491667
0.483333
0.416667
0.066667
0.625000
0.341667
0.483333
0.487500
0.475000
0.475000
0.479167
0.483333
0.475000
0.483333
0.487500
0.483333
0.479167
0.483333
0.479167
0.479167
0.479167
0.479167
0.479167
0.479167
0.475000
0.479167
0.483333
0.483333
0.487500
0.483333
0.483333
0.479167
0.504167
0.504167
0.508333
0.504167
0.504167
0.491667
0.487500
0.495833
0.491667
0.495833
0.491667
0.487500
0.491667
0.491667
0.500000
0.975000
0.487500
0.495833
0.987500
0.483333
0.491667
0.491667
0.633333
0.404167
0.454167
0.483333
0.491667
0.495833
0.495833
0.491667
0.495833
0.483333
0.487500
0.491667
0.491667
0.487500
0.683333
0.283333
0.487500
0.375000
0.600000
0.491667
0.212500
0.270833
0.487500
0.495833
0.483333
0.487500
0.487500
0.500000
0.495833
0.495833
0.491667
0.483333
0.491667
0.487500
0.591667
0.191667
0.116667
0.641667
0.537500
0.320833
0.216667
0.475000
0.354167
0.375000
0.604167
0.491667
1.258333
0.116667
0.604167
0.504167
0.508333
0.500000
0.495833
0.495833
0.495833
0.487500
0.487500
0.487500
0.487500
0.487500
0.479167
0.483333
0.491667
0.487500
0.479167
0.483333
0.479167
0.483333
0.487500
0.479167
0.479167
0.500000
0.508333
0.183333
0.429167
0.408333
0.500000
0.500000
0.495833
0.491667
0.487500
0.479167
0.487500
0.487500
0.487500
0.479167
0.479167
0.483333
0.483333
0.483333
0.479167
0.475000
0.483333
0.479167
0.483333
0.479167
0.479167
0.479167
0.479167
0.479167
0.475000
0.479167
0.479167
0.483333
0.487500
0.487500
0.483333
0.483333
0.487500
0.487500
0.479167
0.483333
0.483333
0.483333
0.483333
0.479167
0.475000
0.479167
0.479167
0.483333
0.487500
0.483333
0.479167
0.483333
0.487500
0.491667
0.487500
0.479167
0.487500
0.495833
0.508333
0.495833
0.454167
0.537500
0.279167
0.700000
0.491667
0.237500
0.475000
0.258333
0.487500
0.170833
0.695833
0.708333
0.320833
0.241667
0.345833
0.433333
0.487500
0.483333
0.479167
0.483333
0.483333
0.483333
0.487500
0.487500
0.483333
0.483333
0.483333
0.491667
0.575000
0.266667
0.204167
0.904167
0.495833
0.483333
0.483333
0.479167
0.962500
0.475000
0.483333
0.483333
0.483333
0.483333
0.475000
0.487500
0.483333
0.487500
0.487500
0.483333
0.487500
0.487500
0.487500
0.491667
0.487500
0.483333
0.487500
0.487500
0.491667
0.479167
0.487500
0.483333
0.495833
0.487500
0.487500
0.487500
0.487500
0.491667
0.491667
0.483333
0.479167
0.491667
0.487500
0.483333
0.979167
0.483333
0.366667
0.612500
0.500000
0.500000
0.495833
0.500000
0.487500
0.495833
0.500000
0.858333
0.625000
0.504167
0.500000
0.504167
0.500000
0.495833
0.487500
0.491667
0.491667
0.970833
0.475000
0.479167
0.479167
0.966667
0.479167
0.479167
0.479167
0.483333
0.475000
0.479167
0.475000
0.958333
0.475000
0.479167
0.475000
0.479167
0.470833
0.475000
0.479167
0.479167
0.475000
0.479167
0.475000
0.470833
0.475000
0.479167
0.475000
0.487500
0.479167
0.483333
0.483333
0.487500
0.487500
0.487500
0.483333
0.491667
0.487500
0.495833
0.487500
0.487500
0.487500
0.491667
0.487500
0.491667
0.487500
0.487500
0.483333
0.491667
0.491667
0.495833
0.491667
0.487500
0.491667
0.491667
0.487500
0.487500
0.483333
0.479167
0.479167
0.500000
0.500000
0.508333
0.495833
0.487500
0.491667
0.491667
0.495833
0.495833
0.487500
0.479167
0.487500
0.483333
0.487500
0.483333
0.483333
0.483333
0.487500
0.491667
0.483333
0.483333
0.487500
0.487500
0.491667
0.483333
0.483333
0.262500
0.225000
0.212500
0.270833
0.870833
0.666667
0.400000
0.750000
0.325000
0.258333
0.483333
0.279167
0.233333
0.587500
0.483333
0.583333
0.375000
0.204167
0.275000
0.475000
0.350000
0.320833
0.404167
0.358333
0.962500
0.475000
0.483333
0.479167
0.366667
0.608333
0.475000
0.483333
0.483333
0.483333
0.479167
0.483333
0.491667
0.504167
0.500000
0.495833
0.491667
0.487500
0.491667
0.491667
0.483333
0.483333
0.491667
0.487500
0.487500
0.495833
0.479167
0.475000
0.491667
0.479167
0.483333
0.495833
0.262500
0.716667
0.487500
0.491667
0.479167
0.483333
0.483333
0.483333
0.479167
0.487500
0.420833
0.245833
0.195833
0.262500
0.808333
0.245833
0.729167
0.108333
0.366667
0.479167
0.487500
0.475000
0.741667
0.691667
0.479167
0.475000
0.954167
0.545833
0.400000
0.479167
0.483333
0.308333
0.629167
0.479167
0.475000
0.470833
0.941667
0.479167
0.475000
0.470833
0.950000
0.475000
0.470833
0.479167
0.487500
0.958333
0.475000
0.483333
0.479167
0.970833
0.475000
0.487500
0.500000
0.500000
1.145833
0.379167
0.425000
0.862500
0.491667
0.225000
0.850000
0.170833
0.275000
0.475000
1.350000
1.250000
0.070833
0.858333
0.737500
0.970833
0.404167
1.395833
0.875000
0.516667
0.458333
1.395833
0.383333
0.725000
1.208333
1.312500
0.654167
0.404167
0.395833
0.462500
0.320833
0.695833
0.387500
0.666667
0.216667
0.295833
0.825000
0.704167
0.916667
0.912500
0.916667
0.462500
0.458333
1.591667
0.379167
0.133333
1.545833
0.454167
0.454167
0.912500
0.295833
0.433333
0.637500
1.045833
0.329167
0.920833
0.466667
0.595833
0.466667
0.541667
0.225000
0.908333
0.350000
0.458333
0.562500
0.904167
0.483333
0.883333
0.454167
0.775000
1.029167
1.354167
0.550000
0.341667
0.275000
1.533333
1.350000
1.358333
1.816667
0.320833
0.595833
0.450000
1.441667
0.495833
0.325000
0.900000
0.733333
0.400000
0.287500
0.687500
0.812500
0.825000
0.350000
0.412500
0.895833
0.891667
0.454167
0.441667
0.550000
0.341667
0.891667
0.645833
0.254167
0.354167
0.545833
0.450000
0.458333
0.450000
0.762500
0.237500
0.741667
0.950000
0.454167
0.445833
0.450000
0.900000
0.458333
0.450000
0.454167
0.450000
0.904167
0.450000
0.195833
0.254167
0.454167
0.904167
0.454167
0.454167
0.904167
0.454167
0.450000
0.454167
0.454167
0.454167
0.450000
0.454167
0.450000
0.454167
0.891667
0.633333
0.266667
0.441667
0.891667
0.450000
0.445833
0.337500
0.300000
0.254167
0.454167
0.900000
0.450000
0.454167
0.450000
0.450000
0.450000
0.450000
0.450000
0.454167
0.454167
0.450000
0.454167
0.454167
0.875000
0.445833
0.962500
0.912500
0.454167
0.462500
0.458333
0.458333
0.916667
0.454167
0.241667
0.666667
0.337500
1.150000
0.229167
0.233333
0.808333
0.933333
0.491667
0.550000
0.370833
0.987500
0.354167
0.445833
0.470833
0.462500
0.916667
0.908333
0.912500
0.904167
0.916667
0.612500
0.300000
0.450000
0.458333
0.279167
0.954167
1.045833
0.454167
0.458333
0.454167
0.595833
0.304167
0.450000
0.454167
0.337500
1.008333
0.900000
0.454167
1.045833
0.308333
0.908333
0.462500
0.404167
0.495833
0.908333
0.912500
1.354167
0.908333
1.816667
0.454167
1.370833
0.458333
1.375000
0.458333
0.458333
0.458333
0.916667
0.454167
0.454167
0.458333
0.458333
0.920833
0.458333
0.454167
0.462500
0.458333
0.925000
0.454167
0.458333
0.462500
0.458333
0.462500
0.466667
0.916667
0.462500
0.466667
0.466667
0.929167
0.925000
0.466667
0.933333
0.462500
0.470833
0.466667
0.466667
0.466667
0.933333
0.929167
0.470833
0.466667
0.475000
0.937500
0.941667
0.483333
0.479167
0.962500
0.475000
0.470833
0.470833
0.462500
0.466667
0.458333
0.929167
0.466667
1.287500
0.625000
0.183333
0.858333
1.204167
0.929167
1.383333
1.391667
1.866667
0.925000
0.466667
0.287500
0.245833
0.400000
0.300000
0.170833
0.925000
0.925000
0.925000
0.466667
0.466667
0.937500
0.466667
0.466667
0.466667
0.466667
0.466667
0.470833
0.466667
0.462500
0.470833
0.466667
0.475000
0.941667
0.466667
0.470833
0.866667
0.087500
0.729167
0.708333
0.479167
0.966667
0.966667
0.475000
0.479167
0.479167
1.062500
0.350000
0.933333
0.462500
0.450000
0.475000
0.654167
0.279167
0.762500
1.079167
0.933333
0.245833
1.154167
1.420833
1.429167
1.912500
0.950000
0.475000
1.904167
0.975000
0.483333
0.845833
0.583333
0.479167
1.425000
1.408333
0.954167
1.420833
0.475000
0.945833
0.470833
1.412500
0.958333
0.475000
0.483333
0.475000
0.950000
0.475000
0.475000
0.479167
0.954167
0.470833
0.479167
0.483333
0.479167
0.483333
0.962500
0.479167
0.479167
0.479167
0.479167
0.970833
0.479167
0.483333
0.487500
0.487500
0.487500
0.483333
0.487500
0.554167
0.370833
0.525000
0.487500
0.475000
0.366667
0.591667
0.304167
0.183333
0.487500
0.483333
0.970833
0.304167
0.250000
0.891667
0.483333
0.479167
