0.429167
0.412500
0.425000
0.425000
0.412500
0.429167
0.416667
0.429167
0.412500
0.420833
0.425000
0.416667
0.429167
0.412500
0.425000
0.420833
0.425000
0.408333
0.425000
0.420833
0.416667
0.425000
0.412500
0.425000
0.412500
0.429167
0.408333
0.420833
0.412500
0.425000
0.416667
0.420833
0.412500
0.420833
0.420833
0.420833
0.412500
0.425000
0.412500
0.420833
0.416667
0.425000
0.416667
0.420833
0.412500
0.425000
0.408333
0.420833
0.429167
0.408333
0.412500
0.425000
0.412500
0.425000
0.408333
0.425000
0.416667
0.412500
0.420833
0.416667
0.420833
0.412500
0.433333
0.408333
0.420833
0.412500
0.429167
0.412500
0.420833
0.416667
0.425000
0.412500
0.429167
0.416667
0.425000
0.412500
0.429167
0.412500
0.433333
0.412500
0.429167
0.412500
0.429167
0.250000
0.662500
0.350000
0.412500
0.420833
0.500000
0.341667
0.429167
0.416667
0.425000
0.416667
0.425000
0.416667
0.420833
0.416667
0.437500
0.408333
0.420833
0.416667
0.425000
0.412500
0.420833
0.420833
0.416667
0.420833
0.420833
0.425000
0.412500
0.425000
0.420833
0.420833
0.416667
0.425000
0.416667
0.429167
0.412500
0.425000
0.425000
0.412500
0.429167
0.416667
0.420833
0.429167
0.412500
0.420833
0.429167
0.412500
0.420833
0.425000
0.416667
0.425000
0.412500
0.425000
0.412500
0.420833
0.420833
0.420833
0.429167
0.412500
0.420833
0.416667
0.420833
0.416667
0.425000
0.412500
0.429167
0.416667
0.437500
0.408333
0.454167
0.404167
0.445833
0.404167
0.441667
0.412500
0.450000
0.408333
0.441667
0.408333
0.450000
0.416667
0.475000
0.425000
0.420833
0.412500
0.404167
0.450000
0.408333
0.425000
0.416667
0.437500
0.416667
0.450000
0.412500
0.437500
0.420833
0.433333
0.416667
0.458333
0.416667
0.408333
0.450000
0.404167
0.454167
0.400000
0.445833
0.420833
0.412500
0.445833
0.404167
0.454167
0.400000
0.441667
0.416667
0.425000
0.441667
0.425000
0.412500
0.433333
0.412500
0.475000
0.437500
0.420833
0.441667
0.433333
0.408333
0.420833
0.420833
0.416667
0.420833
0.445833
0.408333
0.479167
0.450000
0.425000
0.408333
0.445833
0.408333
0.462500
0.441667
0.400000
0.420833
0.437500
0.412500
0.462500
0.408333
0.458333
0.408333
0.445833
0.429167
0.420833
0.454167
0.404167
0.450000
0.404167
0.445833
0.408333
0.450000
0.400000
0.450000
0.404167
0.429167
0.429167
0.412500
0.437500
0.412500
0.433333
0.412500
0.433333
0.412500
0.450000
0.400000
0.433333
0.408333
0.429167
0.433333
0.408333
0.433333
0.416667
0.416667
0.433333
0.412500
0.433333
0.420833
0.412500
0.433333
0.416667
0.433333
0.408333
0.437500
0.404167
0.429167
0.408333
0.425000
0.433333
0.408333
0.429167
0.416667
0.416667
0.429167
0.416667
0.433333
0.408333
0.429167
0.412500
0.425000
0.429167
0.408333
0.437500
0.408333
0.433333
0.408333
0.429167
0.425000
0.416667
0.437500
0.408333
0.429167
0.429167
0.408333
0.437500
0.416667
0.433333
0.412500
0.429167
0.416667
0.441667
0.408333
0.433333
0.425000
0.412500
0.433333
0.412500
0.437500
0.408333
0.437500
0.408333
0.437500
0.408333
0.437500
0.408333
0.437500
0.408333
0.437500
0.408333
0.433333
0.412500
0.437500
0.408333
0.437500
0.408333
0.437500
0.408333
0.433333
0.412500
0.429167
0.425000
0.412500
0.437500
0.412500
0.454167
0.400000
0.441667
0.400000
0.433333
0.412500
0.433333
0.425000
0.416667
0.429167
0.412500
0.437500
0.412500
0.458333
0.400000
0.433333
0.412500
0.575000
0.279167
0.441667
0.412500
0.416667
0.437500
0.420833
0.433333
0.412500
0.429167
0.433333
0.408333
0.445833
0.408333
0.433333
0.416667
0.420833
0.445833
0.404167
0.429167
0.420833
0.416667
0.441667
0.408333
0.429167
0.420833
0.420833
0.437500
0.412500
0.412500
0.433333
0.416667
0.433333
0.404167
0.441667
0.404167
0.441667
0.404167
0.437500
0.404167
0.433333
0.408333
0.437500
0.408333
0.433333
0.408333
0.441667
0.404167
0.437500
0.404167
0.433333
0.408333
0.433333
0.416667
0.416667
0.429167
0.408333
0.437500
0.408333
0.433333
0.404167
0.433333
0.408333
0.425000
0.416667
0.429167
0.408333
0.433333
0.416667
0.416667
0.429167
0.412500
0.429167
0.420833
0.425000
0.416667
0.420833
0.425000
0.420833
0.429167
0.408333
0.437500
0.408333
0.425000
0.420833
0.412500
0.437500
0.408333
0.429167
0.412500
0.429167
0.420833
0.416667
0.433333
0.416667
0.416667
0.433333
0.408333
0.433333
0.412500
0.433333
0.412500
0.437500
0.412500
0.437500
0.408333
0.437500
0.412500
0.433333
0.412500
0.441667
0.429167
0.416667
0.429167
0.575000
0.266667
0.425000
0.429167
0.420833
0.425000
0.412500
0.425000
0.433333
0.454167
0.408333
0.416667
0.412500
0.433333
0.412500
0.441667
0.412500
0.433333
0.425000
0.412500
0.433333
0.420833
0.429167
0.412500
0.437500
0.412500
0.425000
0.425000
0.416667
0.441667
0.404167
0.433333
0.408333
0.433333
0.408333
0.425000
0.416667
0.420833
0.425000
0.412500
0.433333
0.412500
0.425000
0.412500
0.450000
0.400000
0.429167
0.412500
0.429167
0.408333
0.441667
0.408333
0.420833
0.420833
0.429167
0.408333
0.437500
0.408333
0.425000
0.425000
0.412500
0.441667
0.408333
0.425000
0.412500
0.429167
0.412500
0.450000
0.400000
0.437500
0.404167
0.429167
0.425000
0.412500
0.437500
0.408333
0.450000
0.400000
0.433333
0.408333
0.441667
0.404167
0.445833
0.404167
0.433333
0.429167
0.408333
0.437500
0.416667
0.441667
0.416667
0.420833
0.420833
0.437500
0.408333
0.433333
0.433333
0.408333
0.437500
0.408333
0.441667
0.408333
0.433333
0.408333
0.433333
0.408333
0.450000
0.400000
0.429167
0.412500
0.429167
0.408333
0.425000
0.425000
0.416667
0.429167
0.408333
0.429167
0.408333
0.445833
0.400000
0.429167
0.412500
0.445833
0.404167
0.425000
0.412500
0.433333
0.412500
0.433333
0.408333
0.425000
0.420833
0.429167
0.408333
0.437500
0.416667
0.433333
0.404167
0.437500
0.408333
0.433333
0.425000
0.408333
0.437500
0.416667
0.437500
0.404167
0.433333
0.420833
0.420833
0.429167
0.408333
0.429167
0.433333
0.404167
0.433333
0.416667
0.429167
0.412500
0.429167
0.408333
0.429167
0.425000
0.408333
0.437500
0.412500
0.425000
0.412500
0.425000
0.425000
0.412500
0.437500
0.404167
0.429167
0.412500
0.441667
0.408333
0.441667
0.404167
0.441667
0.408333
0.433333
0.416667
0.437500
0.404167
0.441667
0.404167
0.433333
0.425000
0.408333
0.437500
0.412500
0.416667
0.429167
0.416667
0.425000
0.412500
0.441667
0.404167
0.433333
0.412500
0.437500
0.404167
0.433333
0.412500
0.416667
0.433333
0.404167
0.441667
0.408333
0.429167
0.408333
0.425000
0.433333
0.408333
0.429167
0.420833
0.412500
0.433333
0.416667
0.416667
0.433333
0.408333
0.437500
0.404167
0.433333
0.412500
0.429167
0.404167
0.433333
0.408333
0.433333
0.404167
0.425000
0.420833
0.408333
0.429167
0.404167
0.429167
0.420833
0.420833
0.412500
0.420833
0.429167
0.404167
0.437500
0.412500
0.425000
0.420833
0.412500
0.425000
0.412500
0.437500
0.408333
0.429167
0.420833
0.412500
0.433333
0.416667
0.437500
0.404167
0.433333
0.412500
0.433333
0.408333
0.433333
0.425000
0.408333
0.433333
0.425000
0.408333
0.441667
0.412500
0.429167
0.408333
0.437500
0.416667
0.412500
0.429167
0.425000
0.408333
0.437500
0.404167
0.433333
0.408333
0.429167
0.420833
0.408333
0.437500
0.404167
0.425000
0.429167
0.404167
0.429167
0.416667
0.412500
0.429167
0.408333
0.420833
0.433333
0.404167
0.425000
0.416667
0.412500
0.433333
0.408333
0.433333
0.408333
0.425000
0.412500
0.437500
0.408333
0.416667
0.450000
0.408333
0.416667
0.433333
0.408333
0.437500
0.416667
0.437500
0.404167
0.433333
0.404167
0.437500
0.429167
0.416667
0.433333
0.416667
0.437500
0.404167
0.437500
0.408333
0.433333
0.408333
0.429167
0.420833
0.425000
0.420833
0.420833
0.416667
0.429167
0.420833
0.425000
0.425000
0.412500
0.425000
0.425000
0.412500
0.441667
0.412500
0.412500
0.437500
0.408333
0.425000
0.412500
0.420833
0.429167
0.408333
0.433333
0.412500
0.433333
0.408333
0.437500
0.412500
0.433333
0.408333
0.429167
0.420833
0.412500
0.437500
0.408333
0.425000
0.608333
0.462500
0.200000
0.412500
0.433333
0.408333
0.437500
0.404167
0.433333
0.425000
0.408333
0.429167
0.408333
0.445833
0.404167
0.429167
0.408333
0.437500
0.416667
0.429167
0.408333
0.429167
0.425000
0.412500
0.437500
0.412500
0.433333
0.404167
0.441667
0.408333
0.437500
0.412500
0.412500
0.441667
0.408333
0.433333
0.404167
0.429167
0.433333
0.508333
0.333333
0.412500
0.416667
0.429167
0.416667
0.437500
0.400000
0.429167
0.425000
0.416667
0.445833
0.408333
0.412500
0.416667
0.433333
0.408333
0.429167
0.416667
0.433333
0.404167
0.429167
0.429167
0.408333
0.433333
0.416667
0.420833
0.429167
0.412500
0.433333
0.416667
0.412500
0.441667
0.408333
0.437500
0.412500
0.416667
0.433333
0.408333
0.437500
0.408333
0.433333
0.425000
0.408333
0.445833
0.416667
0.412500
0.420833
0.437500
0.404167
0.433333
0.420833
0.408333
0.433333
0.408333
0.437500
0.404167
0.437500
0.404167
0.433333
0.395833
0.429167
0.429167
0.408333
0.433333
0.404167
0.425000
0.425000
0.408333
0.433333
0.416667
0.416667
0.420833
0.429167
0.408333
0.437500
0.404167
0.429167
0.408333
0.441667
0.408333
0.433333
0.404167
0.433333
0.429167
0.408333
0.437500
0.412500
0.425000
0.408333
0.433333
0.416667
0.420833
0.433333
0.400000
0.425000
0.433333
0.404167
0.425000
0.429167
0.408333
0.433333
0.408333
0.429167
0.420833
0.420833
0.408333
0.437500
0.408333
0.437500
0.400000
0.429167
0.425000
0.412500
0.437500
0.400000
0.429167
0.408333
0.441667
0.404167
0.433333
0.404167
0.425000
0.433333
0.404167
0.433333
0.408333
0.429167
0.404167
0.433333
0.404167
0.433333
0.404167
0.425000
0.425000
0.404167
0.433333
0.416667
0.412500
0.433333
0.404167
0.433333
0.408333
0.433333
0.408333
0.433333
0.400000
0.429167
0.416667
0.420833
0.408333
0.425000
0.420833
0.408333
0.429167
0.412500
0.416667
0.425000
0.408333
0.429167
0.404167
0.429167
0.404167
0.433333
0.404167
0.420833
0.425000
0.408333
0.429167
0.412500
0.429167
0.404167
0.429167
0.412500
0.429167
0.408333
0.437500
0.412500
0.412500
0.420833
0.429167
0.408333
0.429167
0.416667
0.412500
0.429167
0.412500
0.429167
0.404167
0.425000
0.420833
0.412500
0.441667
0.404167
0.425000
0.416667
0.412500
0.429167
0.416667
0.425000
0.412500
0.433333
0.404167
0.437500
0.404167
0.429167
0.429167
0.404167
0.433333
0.416667
0.416667
0.433333
0.408333
0.433333
0.404167
0.433333
0.412500
0.425000
0.412500
0.429167
0.408333
0.433333
0.404167
0.420833
0.429167
0.404167
0.429167
0.408333
0.437500
0.400000
0.433333
0.400000
0.425000
0.425000
0.408333
0.429167
0.408333
0.420833
0.420833
0.408333
0.429167
0.412500
0.420833
0.408333
0.425000
0.408333
0.420833
0.425000
0.408333
0.425000
0.412500
0.412500
0.429167
0.412500
0.433333
0.400000
0.425000
0.420833
0.412500
0.433333
0.408333
0.437500
0.400000
0.429167
0.420833
0.412500
0.429167
0.408333
0.429167
0.412500
0.429167
0.408333
0.429167
0.408333
0.429167
0.412500
0.408333
0.429167
0.416667
0.408333
0.433333
0.408333
0.433333
0.404167
0.420833
0.425000
0.408333
0.425000
0.425000
0.404167
0.425000
0.416667
0.412500
0.429167
0.404167
0.420833
0.429167
0.404167
0.420833
0.425000
0.412500
0.429167
0.408333
0.420833
0.408333
0.437500
0.404167
0.429167
0.408333
0.425000
0.412500
0.420833
0.416667
0.420833
0.412500
0.433333
0.404167
0.429167
0.408333
0.425000
0.420833
0.408333
0.425000
0.412500
0.420833
0.412500
0.429167
0.404167
0.425000
0.416667
0.412500
0.420833
0.408333
0.425000
0.412500
0.412500
0.425000
0.408333
0.425000
0.425000
0.404167
0.425000
0.416667
0.420833
0.412500
0.433333
0.408333
0.425000
0.420833
0.425000
0.416667
0.429167
0.404167
0.425000
0.412500
0.437500
0.412500
0.416667
0.437500
0.404167
0.429167
0.429167
0.412500
0.441667
0.404167
0.433333
0.408333
0.441667
0.420833
0.412500
0.429167
0.412500
0.429167
0.433333
0.404167
0.429167
0.425000
0.412500
0.437500
0.404167
0.433333
0.408333
0.437500
0.404167
0.433333
0.408333
0.425000
0.425000
0.408333
0.445833
0.400000
0.429167
0.416667
0.408333
0.437500
0.408333
0.420833
0.425000
0.404167
0.433333
0.416667
0.416667
0.425000
0.404167
0.429167
0.412500
0.433333
0.400000
0.429167
0.404167
0.425000
0.433333
0.400000
0.425000
0.416667
0.412500
0.429167
0.408333
0.429167
0.404167
0.420833
0.425000
0.404167
0.429167
0.412500
0.425000
0.404167
0.429167
0.400000
0.429167
0.425000
0.404167
0.433333
0.400000
0.425000
0.416667
0.420833
0.408333
0.429167
0.408333
0.429167
0.404167
0.425000
0.404167
0.429167
0.420833
0.408333
0.420833
0.420833
0.412500
0.425000
0.408333
0.429167
0.408333
0.420833
0.429167
0.408333
0.429167
0.416667
0.412500
0.433333
0.404167
0.437500
0.404167
0.425000
0.420833
0.412500
0.433333
0.408333
0.429167
0.416667
0.416667
0.433333
0.408333
0.433333
0.416667
0.416667
0.441667
0.408333
0.433333
0.416667
0.429167
0.412500
0.441667
0.412500
0.416667
0.416667
0.433333
0.408333
0.433333
0.416667
0.429167
0.404167
0.408333
0.404167
0.437500
0.408333
0.420833
0.420833
0.425000
0.408333
0.429167
0.416667
0.412500
0.425000
0.416667
0.420833
0.420833
0.416667
0.412500
0.429167
0.412500
0.433333
0.404167
0.420833
0.425000
0.408333
0.437500
0.404167
0.416667
0.425000
0.408333
0.429167
0.408333
0.429167
0.408333
0.425000
0.666667
0.104167
0.362500
0.333333
0.625000
0.437500
0.408333
0.433333
0.404167
0.429167
0.420833
0.837500
0.437500
0.425000
0.404167
0.433333
0.412500
0.433333
0.262500
0.579167
0.433333
0.408333
0.445833
0.408333
0.437500
0.412500
0.437500
0.416667
0.441667
0.400000
0.433333
0.429167
0.400000
0.450000
0.408333
0.437500
0.425000
0.408333
0.433333
0.429167
0.412500
0.450000
0.408333
0.404167
0.429167
0.437500
0.412500
0.445833
0.404167
0.433333
0.408333
0.445833
0.404167
0.429167
0.404167
0.429167
0.408333
0.437500
0.412500
0.412500
0.425000
0.429167
0.408333
0.429167
0.404167
