0.525000
0.525000
0.525000
0.529167
0.529167
0.529167
0.537500
0.529167
0.537500
0.525000
0.533333
0.529167
0.529167
0.537500
0.533333
0.533333
0.533333
0.537500
0.533333
0.537500
0.533333
0.529167
0.529167
0.529167
0.529167
0.533333
0.529167
0.529167
0.533333
0.537500
0.533333
0.537500
0.533333
0.533333
0.533333
0.537500
0.537500
0.537500
0.541667
0.541667
0.541667
0.545833
0.541667
0.541667
0.541667
0.545833
0.545833
0.537500
0.545833
0.541667
0.541667
0.541667
0.541667
0.541667
0.541667
0.541667
0.545833
0.541667
0.541667
0.537500
0.541667
0.541667
0.529167
0.533333
0.470833
0.070833
0.537500
0.529167
0.529167
0.529167
0.533333
0.533333
0.533333
0.529167
0.529167
0.533333
0.529167
0.529167
0.529167
0.529167
0.533333
0.533333
0.533333
0.533333
0.533333
0.533333
0.533333
0.533333
0.537500
0.533333
0.537500
0.533333
0.533333
0.537500
0.541667
0.541667
0.537500
0.537500
0.537500
0.537500
0.545833
0.537500
0.541667
0.541667
0.537500
0.541667
0.541667
0.541667
0.541667
0.541667
0.541667
0.541667
0.545833
0.541667
0.541667
0.545833
0.541667
0.545833
0.545833
0.541667
0.566667
0.108333
0.341667
0.600000
0.533333
0.533333
0.545833
0.170833
0.466667
0.191667
0.500000
0.770833
0.520833
0.525000
0.525000
0.520833
0.525000
0.520833
0.520833
0.525000
0.516667
0.520833
0.525000
0.520833
0.520833
0.520833
0.525000
0.520833
0.520833
0.520833
0.525000
0.525000
0.533333
0.525000
0.529167
0.533333
0.529167
0.529167
0.533333
0.525000
0.537500
0.533333
0.533333
0.537500
0.533333
0.541667
0.541667
0.541667
0.537500
0.537500
0.537500
0.541667
0.545833
0.537500
0.537500
0.533333
0.541667
0.537500
0.537500
0.541667
0.541667
0.537500
0.545833
0.533333
0.537500
0.537500
0.537500
0.537500
0.541667
0.541667
0.537500
0.537500
0.545833
0.541667
0.541667
0.537500
0.541667
0.537500
0.550000
0.541667
0.537500
0.541667
0.541667
0.250000
0.295833
0.345833
0.433333
0.295833
0.533333
0.537500
0.533333
0.533333
0.525000
0.529167
0.529167
0.525000
0.529167
0.525000
0.525000
0.529167
0.525000
0.525000
0.525000
0.520833
0.520833
0.520833
0.520833
0.520833
0.708333
0.062500
0.616667
0.179167
1.045833
0.516667
1.041667
0.516667
0.516667
0.525000
0.520833
0.520833
0.525000
0.520833
0.520833
0.525000
0.525000
0.529167
0.529167
0.529167
0.525000
0.533333
0.525000
0.529167
0.529167
0.533333
0.533333
0.537500
0.537500
0.533333
0.537500
0.541667
0.437500
0.620833
0.529167
0.525000
0.525000
0.587500
0.129167
0.516667
0.566667
0.287500
0.516667
0.516667
0.516667
0.516667
0.516667
0.516667
0.512500
0.516667
0.516667
0.512500
0.516667
0.512500
0.516667
0.512500
0.516667
0.520833
0.520833
0.520833
0.529167
0.462500
0.595833
0.516667
0.520833
0.529167
0.245833
0.279167
0.520833
0.525000
0.520833
0.525000
0.633333
0.408333
0.516667
0.520833
0.516667
0.516667
0.516667
0.516667
0.512500
0.516667
0.516667
0.516667
0.520833
0.516667
0.520833
0.516667
0.520833
0.516667
0.525000
0.525000
0.525000
0.525000
0.525000
0.529167
0.529167
0.529167
0.533333
0.533333
0.533333
0.533333
0.537500
0.533333
0.533333
0.537500
0.533333
0.541667
0.533333
0.537500
0.537500
0.533333
0.537500
0.533333
0.537500
0.533333
0.537500
0.533333
0.533333
0.533333
0.537500
0.537500
0.533333
0.541667
0.537500
0.541667
0.541667
0.541667
0.537500
0.541667
0.537500
0.541667
0.537500
0.533333
0.537500
0.537500
0.541667
0.541667
0.545833
0.541667
0.545833
0.541667
0.545833
0.541667
0.545833
0.550000
0.554167
0.545833
0.545833
0.545833
0.545833
0.545833
0.545833
0.545833
0.545833
0.554167
0.550000
0.550000
0.545833
0.545833
0.550000
0.550000
0.545833
0.545833
0.550000
0.550000
0.554167
0.550000
0.550000
0.550000
0.550000
0.541667
0.541667
0.537500
0.504167
0.408333
0.704167
0.091667
0.616667
0.166667
0.387500
0.345833
0.533333
0.537500
0.533333
0.533333
0.537500
0.533333
0.533333
0.529167
0.537500
0.537500
0.533333
0.529167
0.533333
0.529167
0.533333
0.533333
0.529167
0.529167
0.537500
0.537500
0.541667
0.541667
0.537500
0.545833
0.550000
0.550000
0.545833
0.545833
0.545833
0.541667
0.545833
0.541667
0.545833
0.545833
0.545833
0.541667
0.545833
0.550000
0.550000
0.545833
0.545833
0.541667
0.545833
0.550000
0.545833
0.545833
0.550000
0.541667
0.545833
0.350000
0.375000
0.358333
0.541667
0.466667
0.604167
0.237500
0.304167
0.533333
0.537500
0.529167
0.537500
0.533333
0.533333
0.533333
0.529167
0.533333
0.537500
0.537500
0.533333
0.541667
0.541667
0.541667
0.545833
0.537500
0.541667
0.545833
0.541667
0.541667
0.550000
0.550000
0.545833
0.550000
0.545833
0.554167
0.550000
0.550000
0.545833
0.554167
0.545833
0.554167
0.545833
0.554167
0.545833
0.541667
0.537500
0.537500
0.604167
0.466667
0.483333
0.325000
0.304167
0.308333
0.320833
0.379167
0.529167
0.525000
0.529167
0.525000
0.520833
0.525000
0.525000
0.520833
0.520833
0.525000
0.520833
0.525000
0.529167
0.529167
0.529167
0.529167
0.529167
0.533333
0.529167
0.533333
0.533333
0.533333
0.529167
0.537500
0.541667
0.541667
0.541667
0.537500
0.541667
0.541667
0.541667
0.545833
0.545833
0.695833
0.379167
0.700000
0.366667
0.533333
0.533333
0.533333
0.529167
0.529167
0.529167
0.529167
0.525000
0.525000
0.525000
0.529167
0.520833
0.525000
0.520833
0.525000
0.525000
0.525000
0.525000
0.525000
0.525000
0.525000
0.529167
0.529167
0.529167
0.525000
0.529167
0.533333
0.529167
0.537500
0.533333
0.533333
0.541667
0.541667
0.537500
0.541667
0.537500
0.541667
0.541667
0.600000
0.320833
0.154167
0.533333
0.533333
0.529167
0.529167
0.529167
0.529167
0.525000
0.525000
0.529167
0.525000
0.525000
0.237500
0.287500
0.520833
0.525000
0.520833
0.520833
0.525000
0.529167
0.525000
0.520833
0.529167
0.525000
0.529167
0.525000
0.529167
0.525000
0.529167
0.529167
0.533333
0.525000
0.279167
0.262500
0.525000
0.520833
0.604167
0.266667
0.695833
0.220833
0.304167
0.516667
0.525000
0.520833
0.520833
0.520833
0.520833
0.520833
0.525000
0.525000
0.520833
0.529167
0.525000
0.529167
0.525000
0.529167
0.529167
0.525000
0.529167
0.529167
0.533333
0.533333
0.537500
0.533333
0.533333
0.537500
0.537500
0.533333
0.537500
0.533333
0.533333
0.541667
0.537500
0.537500
0.541667
0.537500
0.545833
0.541667
0.550000
0.537500
0.545833
0.537500
0.541667
0.537500
0.537500
0.541667
0.537500
0.537500
0.541667
0.541667
0.545833
0.541667
0.541667
0.550000
0.550000
0.550000
0.550000
0.550000
0.554167
0.554167
0.550000
0.550000
0.550000
0.550000
0.550000
0.550000
0.550000
0.550000
0.550000
0.550000
0.554167
0.545833
0.545833
0.229167
0.558333
0.829167
0.533333
0.537500
0.650000
0.120833
0.279167
0.420833
0.641667
0.525000
0.520833
0.520833
0.525000
0.375000
0.070833
0.591667
0.258333
0.270833
0.437500
0.475000
0.145833
0.483333
0.508333
1.037500
0.512500
1.029167
0.516667
0.512500
0.520833
0.525000
0.520833
0.520833
0.529167
0.525000
0.529167
0.525000
0.529167
0.529167
0.533333
0.533333
0.533333
0.712500
0.095833
0.100000
0.662500
0.525000
0.525000
0.525000
0.520833
0.525000
0.520833
0.520833
0.525000
0.516667
0.525000
0.520833
0.520833
0.525000
0.520833
0.520833
0.520833
0.525000
0.525000
0.520833
0.525000
0.525000
0.529167
0.525000
0.525000
0.525000
0.525000
0.533333
0.529167
0.529167
0.533333
0.525000
0.437500
0.633333
0.537500
0.529167
0.533333
0.533333
0.537500
0.533333
0.537500
0.537500
0.533333
0.533333
0.541667
0.537500
0.541667
0.533333
0.437500
0.216667
0.341667
0.612500
0.116667
0.416667
0.262500
0.275000
0.520833
0.529167
0.525000
0.525000
0.683333
0.250000
0.479167
0.562500
0.175000
0.600000
0.204167
0.675000
0.512500
0.512500
0.516667
0.516667
0.508333
0.512500
0.512500
0.512500
0.512500
0.512500
0.516667
0.516667
0.520833
0.516667
0.554167
0.483333
0.716667
0.195833
0.316667
0.220833
0.204167
0.920833
1.020833
0.512500
0.512500
0.516667
0.512500
0.516667
0.512500
0.512500
0.512500
0.520833
0.512500
0.520833
0.516667
0.525000
0.529167
0.525000
0.520833
0.525000
0.529167
0.525000
0.529167
0.520833
0.529167
0.529167
0.529167
0.525000
0.525000
0.529167
0.525000
0.429167
0.275000
0.341667
0.516667
0.695833
0.362500
0.387500
0.333333
0.816667
0.512500
0.520833
0.516667
0.516667
0.516667
0.516667
0.512500
0.516667
0.508333
0.516667
0.512500
0.516667
0.512500
0.508333
0.512500
0.512500
0.512500
0.516667
0.512500
0.512500
0.512500
0.516667
0.512500
0.516667
0.512500
0.520833
0.516667
0.520833
0.525000
0.520833
0.525000
0.525000
0.525000
0.525000
0.525000
0.529167
0.525000
0.525000
0.529167
0.529167
0.529167
0.533333
0.537500
0.533333
0.529167
0.295833
0.525000
1.287500
0.750000
0.804167
0.516667
0.516667
0.512500
0.516667
0.520833
0.516667
0.516667
0.516667
0.516667
0.520833
0.516667
0.525000
0.520833
0.525000
0.529167
0.525000
0.529167
0.529167
0.529167
0.525000
0.529167
0.529167
0.529167
0.529167
0.529167
0.529167
0.529167
0.529167
0.533333
0.529167
0.533333
0.533333
0.533333
0.529167
0.533333
0.533333
0.529167
0.533333
0.529167
0.537500
0.537500
0.533333
0.537500
0.537500
0.533333
0.533333
0.537500
0.533333
0.541667
0.533333
0.533333
0.533333
0.533333
0.533333
0.533333
0.537500
0.537500
0.537500
0.537500
0.537500
0.533333
0.533333
0.533333
0.537500
0.533333
0.537500
0.537500
0.537500
0.537500
0.537500
0.541667
0.545833
0.541667
0.545833
0.545833
0.545833
0.541667
0.541667
0.541667
0.541667
0.541667
0.541667
0.541667
0.537500
0.541667
0.537500
0.545833
0.545833
0.537500
0.537500
0.541667
0.541667
0.541667
0.541667
0.545833
0.537500
0.550000
0.541667
0.545833
0.541667
0.545833
0.541667
0.545833
0.550000
0.545833
0.545833
0.541667
0.541667
0.545833
0.545833
0.545833
0.545833
0.550000
0.550000
0.545833
0.545833
0.545833
0.545833
0.550000
0.545833
0.545833
0.550000
0.550000
0.550000
0.554167
0.550000
0.550000
0.550000
0.550000
0.550000
0.545833
0.541667
0.545833
0.545833
0.550000
0.550000
0.550000
0.545833
0.550000
0.554167
0.554167
0.550000
0.550000
0.554167
0.554167
0.550000
0.550000
0.550000
0.545833
0.554167
0.550000
0.550000
0.545833
0.545833
0.541667
0.550000
0.541667
0.550000
0.541667
0.545833
0.550000
0.550000
0.545833
0.550000
0.554167
0.545833
0.458333
0.629167
0.537500
0.537500
0.458333
0.083333
0.291667
0.783333
0.529167
0.533333
0.458333
0.604167
0.679167
0.462500
0.420833
0.516667
1.029167
0.575000
0.458333
0.508333
0.512500
0.512500
0.512500
0.512500
0.512500
0.516667
0.512500
0.516667
0.516667
0.520833
0.520833
0.520833
0.520833
0.525000
0.520833
0.525000
0.525000
0.525000
0.529167
0.529167
0.529167
0.529167
0.529167
0.525000
0.704167
0.483333
0.383333
0.516667
0.525000
0.512500
0.516667
0.512500
0.516667
0.516667
0.516667
0.516667
0.520833
0.520833
0.525000
0.516667
0.266667
0.254167
0.525000
0.516667
0.520833
0.479167
0.400000
0.675000
0.516667
0.520833
0.520833
0.520833
0.520833
0.525000
0.520833
0.520833
0.516667
0.516667
0.520833
0.520833
0.516667
0.520833
0.520833
0.525000
0.520833
0.525000
0.525000
0.525000
0.525000
0.525000
0.529167
0.525000
0.529167
0.533333
0.533333
0.533333
0.525000
0.529167
0.525000
0.529167
0.529167
0.670833
0.370833
