0.525000
0.533333
0.525000
0.529167
0.533333
0.525000
0.533333
0.529167
0.529167
0.529167
0.529167
0.533333
0.529167
0.529167
0.529167
0.529167
0.533333
0.529167
0.529167
0.533333
0.529167
0.529167
0.533333
0.212500
0.316667
0.529167
0.525000
0.254167
0.279167
0.529167
0.325000
0.733333
0.529167
0.533333
0.529167
0.529167
0.529167
0.533333
0.533333
0.529167
0.533333
0.529167
0.529167
0.529167
0.533333
0.533333
0.529167
0.529167
0.529167
0.529167
0.533333
0.529167
0.529167
0.529167
0.529167
0.529167
0.529167
0.529167
0.529167
0.529167
0.529167
0.533333
0.529167
0.529167
0.529167
0.533333
0.525000
0.533333
0.529167
0.529167
0.529167
0.529167
0.533333
0.529167
0.529167
0.533333
0.525000
0.533333
0.533333
0.529167
0.529167
0.529167
0.533333
0.533333
0.529167
0.529167
0.529167
0.533333
0.529167
0.529167
0.533333
0.529167
0.533333
0.533333
0.533333
0.533333
0.529167
0.529167
0.537500
0.529167
0.533333
0.533333
0.533333
0.533333
0.533333
0.533333
0.533333
0.533333
0.533333
0.533333
0.533333
0.533333
0.533333
0.533333
0.537500
0.533333
0.533333
0.533333
0.537500
0.533333
0.533333
0.533333
0.537500
0.533333
0.537500
0.533333
0.533333
0.533333
0.533333
0.533333
0.533333
0.533333
0.537500
0.533333
0.533333
0.537500
0.533333
0.533333
0.537500
0.533333
0.537500
0.533333
0.537500
0.537500
0.533333
0.533333
0.537500
0.533333
0.537500
0.533333
0.537500
0.533333
0.537500
0.533333
0.537500
0.533333
0.537500
0.533333
0.533333
0.416667
0.637500
0.545833
0.541667
0.537500
0.537500
0.537500
0.537500
0.537500
0.537500
0.537500
0.533333
0.537500
0.537500
0.537500
0.533333
0.541667
0.533333
0.537500
0.537500
0.533333
0.537500
0.537500
0.537500
0.537500
0.537500
0.537500
0.537500
0.537500
0.533333
0.537500
0.541667
0.533333
0.541667
0.537500
0.537500
0.533333
0.537500
0.537500
0.537500
0.537500
0.537500
0.541667
0.645833
0.470833
0.491667
0.533333
0.258333
0.562500
0.250000
0.537500
0.537500
0.533333
0.537500
0.533333
0.537500
0.537500
0.533333
0.537500
0.533333
0.537500
0.537500
0.533333
0.537500
0.537500
0.533333
0.537500
0.533333
0.537500
0.537500
0.533333
0.537500
0.537500
0.537500
0.533333
0.537500
0.541667
0.533333
0.537500
0.537500
0.537500
0.537500
0.533333
0.537500
0.541667
0.537500
0.537500
0.537500
0.537500
0.537500
0.537500
0.537500
0.537500
0.533333
0.541667
0.533333
0.533333
0.537500
0.541667
0.537500
0.537500
0.537500
0.533333
0.537500
0.537500
0.537500
0.541667
0.537500
0.537500
0.537500
0.537500
0.537500
0.537500
0.537500
0.537500
0.541667
0.537500
0.537500
0.537500
0.533333
0.541667
0.533333
0.537500
0.537500
0.537500
0.537500
0.537500
0.537500
0.533333
0.537500
0.537500
0.537500
0.537500
0.533333
0.541667
0.541667
0.537500
0.537500
0.537500
0.537500
0.541667
0.537500
0.537500
0.537500
0.537500
0.537500
0.537500
0.541667
0.537500
0.537500
0.537500
0.533333
0.541667
0.541667
0.537500
0.541667
0.537500
0.541667
0.541667
0.537500
0.537500
0.541667
0.537500
0.541667
0.537500
0.541667
0.537500
0.537500
0.541667
0.541667
0.537500
0.541667
0.537500
0.541667
0.541667
0.537500
0.541667
0.541667
0.537500
0.541667
0.541667
0.537500
0.537500
0.541667
0.537500
0.537500
0.541667
0.537500
0.541667
0.537500
0.537500
0.541667
0.541667
0.537500
0.537500
0.541667
0.537500
0.541667
0.537500
0.537500
0.541667
0.537500
0.537500
0.537500
0.541667
0.541667
0.537500
0.541667
0.537500
0.541667
0.537500
0.541667
0.537500
0.541667
0.537500
0.541667
0.537500
0.537500
0.541667
0.541667
0.537500
0.541667
0.541667
0.537500
0.541667
0.537500
0.541667
0.537500
0.537500
0.541667
0.537500
0.541667
0.541667
0.537500
0.541667
0.541667
0.537500
0.541667
0.541667
0.541667
0.541667
0.541667
0.541667
0.541667
0.529167
0.554167
0.545833
0.541667
0.537500
0.541667
0.545833
0.541667
0.545833
0.541667
0.541667
0.545833
0.541667
0.541667
0.541667
0.545833
0.545833
0.541667
0.545833
0.545833
0.537500
0.545833
0.545833
0.545833
0.541667
0.537500
0.545833
0.541667
0.545833
0.541667
0.545833
0.541667
0.541667
0.545833
0.541667
0.537500
0.545833
0.541667
0.541667
0.545833
0.541667
0.541667
0.541667
0.545833
0.541667
0.541667
0.541667
0.541667
0.541667
0.541667
0.537500
0.541667
0.541667
0.541667
0.537500
0.541667
0.537500
0.541667
0.537500
0.541667
0.541667
0.541667
0.537500
0.541667
0.537500
0.537500
0.541667
0.541667
0.537500
0.545833
0.537500
0.541667
0.541667
0.541667
0.537500
0.545833
0.541667
0.533333
0.537500
0.545833
0.541667
0.541667
0.541667
0.537500
0.541667
0.545833
0.537500
0.541667
0.545833
0.537500
0.541667
0.541667
0.545833
0.537500
0.541667
0.541667
0.537500
0.541667
0.537500
0.541667
0.541667
0.537500
0.541667
0.541667
0.541667
0.541667
0.537500
0.541667
0.537500
0.541667
0.541667
0.541667
0.541667
0.541667
0.541667
0.541667
0.537500
0.541667
0.541667
0.541667
0.541667
0.537500
0.541667
0.541667
0.541667
0.541667
0.537500
0.545833
0.537500
0.541667
0.545833
0.537500
0.541667
0.545833
0.541667
0.541667
0.541667
0.541667
0.541667
0.541667
0.545833
0.541667
0.541667
0.541667
0.545833
0.541667
0.545833
0.541667
0.541667
0.545833
0.545833
0.541667
0.541667
0.545833
0.541667
0.545833
0.541667
0.545833
0.545833
0.541667
0.545833
0.545833
0.545833
0.541667
0.541667
0.550000
0.545833
0.545833
0.545833
0.545833
0.541667
0.541667
0.545833
0.545833
0.545833
0.475000
0.604167
0.550000
0.545833
0.545833
0.545833
0.541667
0.550000
0.545833
0.541667
0.550000
0.541667
0.545833
0.545833
0.545833
0.545833
0.545833
0.545833
0.545833
0.545833
0.545833
0.545833
0.545833
0.545833
0.545833
0.550000
0.541667
0.545833
0.545833
0.545833
0.550000
0.545833
0.545833
0.545833
0.545833
0.541667
0.550000
0.541667
0.545833
0.550000
0.541667
0.545833
0.550000
0.541667
0.545833
0.545833
0.545833
0.545833
0.545833
0.545833
0.545833
0.545833
0.541667
0.545833
0.550000
0.545833
0.545833
0.545833
0.541667
0.545833
0.545833
0.545833
0.545833
0.545833
0.545833
0.545833
0.545833
0.545833
0.545833
0.545833
0.545833
0.545833
0.541667
0.550000
0.545833
0.541667
0.545833
0.550000
0.545833
0.541667
0.550000
0.545833
0.545833
0.545833
0.545833
0.545833
0.545833
0.545833
0.545833
0.545833
0.545833
0.545833
0.541667
0.550000
0.545833
0.545833
0.545833
0.545833
0.550000
0.541667
0.541667
0.550000
0.545833
0.550000
0.537500
0.554167
0.550000
0.545833
0.529167
0.562500
0.554167
0.545833
0.545833
0.550000
0.545833
0.550000
0.545833
0.550000
0.545833
0.550000
0.550000
0.545833
0.550000
0.545833
0.545833
0.550000
0.541667
0.550000
0.550000
0.545833
0.545833
0.550000
0.545833
0.545833
0.550000
0.545833
0.545833
0.545833
0.545833
0.545833
0.545833
0.550000
0.545833
0.545833
0.550000
0.545833
0.550000
0.545833
0.545833
0.545833
0.545833
0.545833
0.550000
0.545833
0.545833
0.550000
0.545833
0.545833
0.550000
0.545833
0.545833
0.545833
0.550000
0.541667
0.541667
0.550000
0.550000
0.545833
0.545833
0.545833
0.550000
0.545833
0.545833
0.545833
0.550000
0.545833
0.545833
0.545833
0.545833
0.545833
0.545833
0.545833
0.545833
0.545833
0.545833
0.550000
0.545833
0.545833
0.550000
0.541667
0.541667
0.554167
0.550000
0.541667
0.550000
0.545833
0.545833
0.545833
0.550000
0.545833
0.541667
0.545833
0.550000
0.545833
0.545833
0.550000
0.545833
0.545833
0.541667
0.550000
0.545833
0.541667
0.545833
0.545833
0.545833
0.545833
0.550000
0.545833
0.545833
0.541667
0.545833
0.545833
0.545833
0.550000
0.545833
0.545833
0.545833
0.545833
0.545833
0.545833
0.550000
0.545833
0.466667
0.612500
0.554167
0.545833
0.545833
0.545833
0.550000
0.550000
0.545833
0.550000
0.545833
0.550000
0.550000
0.541667
0.550000
0.545833
0.545833
0.545833
0.550000
0.545833
0.545833
0.550000
0.541667
0.545833
0.550000
0.541667
0.545833
0.550000
0.545833
0.541667
0.545833
0.545833
0.550000
0.541667
0.466667
0.612500
0.554167
0.541667
0.550000
0.545833
0.545833
0.545833
0.550000
0.541667
0.550000
0.545833
0.545833
0.545833
0.545833
0.545833
0.545833
0.545833
0.545833
0.545833
0.545833
0.545833
0.550000
0.541667
0.545833
0.545833
0.545833
0.545833
0.545833
0.512500
0.575000
0.550000
0.541667
0.541667
0.545833
0.550000
0.541667
0.437500
0.637500
0.558333
0.545833
0.475000
0.608333
0.554167
0.545833
0.550000
0.550000
0.545833
0.545833
0.550000
0.545833
0.545833
0.545833
0.550000
0.541667
0.545833
0.545833
0.550000
0.545833
0.545833
0.545833
0.541667
0.550000
0.545833
0.545833
0.550000
0.545833
0.545833
0.550000
0.545833
0.550000
0.550000
0.545833
0.545833
0.545833
0.545833
0.545833
0.550000
0.545833
0.545833
0.545833
0.545833
0.545833
0.541667
0.550000
0.545833
0.550000
0.545833
0.545833
0.545833
0.550000
0.545833
0.550000
0.545833
0.545833
0.545833
0.550000
0.545833
0.550000
0.550000
0.545833
0.545833
0.545833
0.545833
0.545833
0.545833
0.550000
0.545833
0.541667
0.550000
0.550000
0.541667
0.550000
0.550000
0.541667
0.550000
0.545833
0.545833
0.545833
0.545833
0.550000
0.545833
0.545833
0.545833
0.550000
0.545833
0.545833
0.545833
0.550000
0.550000
0.529167
0.566667
0.520833
0.575000
0.545833
0.541667
0.554167
0.491667
0.600000
0.554167
0.550000
0.545833
0.550000
0.550000
0.545833
0.550000
0.554167
0.545833
0.550000
0.504167
0.587500
0.554167
0.545833
0.550000
0.545833
0.545833
0.550000
0.545833
0.545833
0.550000
0.545833
0.545833
0.550000
0.545833
0.545833
0.541667
0.550000
0.545833
0.545833
0.545833
0.550000
0.545833
0.541667
0.550000
0.550000
0.545833
0.541667
0.550000
0.550000
0.545833
0.545833
0.541667
0.550000
0.550000
0.545833
0.516667
0.575000
0.554167
0.550000
0.483333
0.600000
0.554167
0.550000
0.545833
0.545833
0.554167
0.550000
0.545833
0.550000
0.550000
0.545833
0.495833
0.595833
0.550000
0.550000
0.545833
0.550000
0.550000
0.550000
0.545833
0.550000
0.550000
0.545833
0.550000
0.550000
0.550000
0.541667
0.550000
0.550000
0.545833
0.550000
0.550000
0.550000
0.550000
0.545833
0.550000
0.550000
0.545833
0.550000
0.550000
0.545833
0.550000
0.545833
0.550000
0.545833
0.550000
0.545833
0.554167
0.545833
0.545833
0.550000
0.550000
0.545833
0.541667
0.554167
0.550000
0.550000
0.545833
0.554167
0.545833
0.550000
0.550000
0.550000
0.550000
0.550000
0.554167
0.550000
0.550000
0.562500
0.550000
0.545833
0.554167
0.554167
0.545833
0.550000
0.554167
0.550000
0.550000
0.550000
0.550000
0.550000
0.550000
0.554167
0.550000
0.550000
0.550000
0.550000
0.554167
0.545833
0.550000
0.554167
0.550000
0.541667
0.558333
0.554167
0.550000
0.550000
0.554167
0.550000
0.550000
0.554167
0.550000
0.550000
0.554167
0.550000
0.550000
0.554167
0.550000
0.550000
0.550000
0.550000
0.550000
0.554167
0.550000
0.550000
0.550000
0.550000
0.550000
0.554167
0.545833
