0.666667
0.583333
0.566667
0.562500
0.441667
0.662500
0.579167
0.562500
0.562500
0.437500
0.662500
0.575000
0.345833
0.091667
0.120833
0.558333
0.462500
0.475000
0.204167
0.570833
0.570833
0.570833
0.570833
0.562500
0.570833
0.441667
0.662500
0.575000
0.566667
0.441667
0.662500
0.575000
0.562500
0.562500
0.437500
0.658333
0.575000
0.558333
0.441667
0.658333
0.570833
0.558333
0.562500
0.437500
0.654167
0.570833
0.558333
0.562500
0.437500
0.645833
0.241667
0.329167
0.562500
0.562500
0.562500
0.283333
0.283333
0.570833
0.566667
0.570833
0.570833
0.575000
0.558333
0.562500
0.566667
0.445833
0.658333
0.575000
0.562500
0.441667
0.662500
0.570833
0.562500
0.441667
0.658333
0.570833
0.562500
0.558333
0.437500
0.654167
0.570833
0.562500
0.437500
0.654167
0.575000
0.554167
0.558333
0.554167
0.554167
0.558333
0.445833
0.633333
0.566667
0.554167
0.558333
0.754167
0.358333
0.554167
0.650000
0.329167
0.687500
0.554167
0.554167
0.225000
0.333333
0.558333
0.558333
0.562500
0.562500
0.558333
0.554167
0.562500
0.562500
0.570833
0.558333
0.558333
0.562500
0.570833
0.558333
0.558333
0.562500
0.220833
0.345833
0.562500
0.558333
0.562500
0.562500
0.566667
0.558333
0.558333
0.558333
0.566667
0.558333
0.554167
0.558333
0.558333
0.558333
0.675000
0.445833
0.558333
0.554167
0.558333
0.558333
0.566667
0.554167
0.558333
0.554167
0.558333
0.566667
0.558333
0.558333
0.554167
0.562500
0.562500
0.558333
0.554167
0.558333
0.562500
0.566667
0.558333
0.558333
0.558333
0.558333
0.341667
0.220833
0.483333
0.237500
0.520833
0.075000
0.125000
0.795833
0.570833
0.570833
0.570833
0.575000
0.570833
0.562500
0.566667
0.570833
0.575000
0.566667
0.562500
0.562500
0.566667
0.575000
0.566667
0.558333
0.562500
0.566667
0.570833
0.566667
0.558333
0.562500
0.562500
0.570833
0.566667
0.558333
0.558333
0.562500
0.570833
0.562500
0.558333
0.558333
0.566667
0.570833
0.558333
0.558333
0.558333
0.566667
0.566667
0.558333
0.554167
0.558333
0.562500
0.562500
0.558333
0.554167
0.616667
0.500000
0.558333
0.754167
0.445833
0.475000
0.558333
0.558333
0.562500
0.558333
0.558333
0.554167
0.558333
0.562500
0.562500
0.558333
0.554167
0.558333
0.558333
0.562500
0.558333
0.554167
0.558333
0.558333
0.562500
0.558333
0.554167
0.554167
0.562500
0.558333
0.558333
0.558333
0.562500
0.562500
0.554167
0.558333
0.558333
0.558333
0.620833
0.508333
0.558333
0.558333
0.562500
0.566667
0.566667
0.558333
0.275000
0.283333
0.566667
0.566667
0.558333
0.558333
0.562500
0.566667
0.558333
0.558333
0.558333
0.562500
0.566667
0.562500
0.554167
0.558333
0.558333
0.295833
0.829167
0.562500
0.566667
0.562500
0.558333
0.558333
0.562500
0.566667
0.266667
0.291667
0.554167
0.562500
0.275000
0.283333
0.566667
0.566667
0.558333
0.558333
0.558333
0.562500
0.566667
0.562500
0.558333
0.562500
0.558333
0.570833
0.562500
0.566667
0.562500
0.562500
0.562500
0.237500
0.395833
0.187500
0.637500
0.400000
0.408333
0.241667
0.329167
0.554167
0.570833
0.566667
0.566667
0.562500
0.566667
0.575000
0.558333
0.566667
0.566667
0.570833
0.566667
0.562500
0.433333
0.454167
0.241667
0.566667
0.325000
0.233333
0.562500
0.562500
0.166667
0.400000
0.562500
0.570833
0.562500
0.558333
0.558333
0.566667
0.562500
0.558333
0.558333
0.562500
0.566667
0.558333
0.554167
0.562500
0.558333
0.566667
0.566667
0.558333
0.562500
0.558333
0.562500
0.566667
0.562500
0.562500
0.558333
0.562500
0.566667
0.620833
0.512500
0.566667
0.562500
0.566667
0.570833
0.570833
0.575000
0.570833
0.566667
0.566667
0.570833
0.575000
0.575000
0.566667
0.566667
0.570833
0.575000
0.570833
0.566667
0.566667
0.566667
0.575000
0.562500
0.566667
0.566667
0.570833
0.562500
0.562500
0.562500
0.566667
0.566667
0.558333
0.562500
0.566667
0.566667
0.566667
0.575000
0.562500
0.562500
0.566667
0.566667
0.570833
0.562500
0.562500
0.562500
0.570833
0.570833
0.562500
0.562500
0.562500
0.570833
0.562500
0.508333
0.616667
0.562500
0.570833
0.562500
0.562500
0.562500
0.566667
0.570833
0.562500
0.562500
0.562500
0.566667
0.279167
0.287500
0.562500
0.562500
0.566667
0.566667
0.570833
0.562500
0.562500
0.570833
0.566667
0.570833
0.570833
0.570833
0.566667
0.566667
0.570833
0.579167
0.566667
0.566667
0.570833
0.579167
0.562500
0.566667
0.566667
0.575000
0.575000
0.562500
0.566667
0.566667
0.575000
0.562500
0.562500
0.666667
0.462500
0.570833
0.204167
0.358333
0.562500
0.562500
0.562500
0.170833
0.400000
0.558333
0.562500
0.562500
0.558333
0.266667
0.295833
0.570833
0.562500
0.558333
0.562500
0.562500
0.566667
0.570833
0.562500
0.562500
0.566667
0.570833
0.566667
0.562500
0.566667
0.562500
0.566667
0.562500
0.562500
0.562500
0.437500
0.695833
0.562500
0.562500
0.566667
0.570833
0.575000
0.562500
0.566667
0.570833
0.575000
0.566667
0.566667
0.570833
0.579167
0.570833
0.566667
0.566667
0.570833
0.579167
0.566667
0.566667
0.566667
0.570833
0.570833
0.566667
0.566667
0.562500
0.570833
0.570833
0.566667
0.562500
0.562500
0.570833
0.566667
0.562500
0.562500
0.562500
0.566667
0.566667
0.562500
0.412500
0.708333
0.562500
0.566667
0.570833
0.562500
0.558333
0.558333
0.562500
0.562500
0.566667
0.558333
0.562500
0.516667
0.604167
0.562500
0.562500
0.562500
0.562500
0.308333
0.825000
0.562500
0.562500
0.566667
0.566667
0.570833
0.570833
0.570833
0.566667
0.387500
0.758333
0.579167
0.570833
0.570833
0.570833
0.579167
0.579167
0.570833
0.570833
0.716667
0.437500
0.570833
0.570833
0.570833
0.583333
0.566667
0.570833
0.575000
0.579167
0.570833
0.566667
0.570833
0.579167
0.575000
0.566667
0.566667
0.566667
0.575000
0.575000
0.566667
0.562500
0.562500
0.570833
0.570833
0.570833
0.562500
0.562500
0.416667
0.708333
0.570833
0.566667
0.558333
0.562500
0.562500
0.566667
0.566667
0.562500
0.558333
0.562500
0.562500
0.562500
0.558333
0.558333
0.562500
0.562500
0.562500
0.558333
0.562500
0.558333
0.562500
0.566667
0.562500
0.562500
0.558333
0.562500
0.262500
0.304167
0.362500
0.208333
0.562500
0.558333
0.566667
0.566667
0.570833
0.562500
0.562500
0.562500
0.575000
0.566667
0.225000
0.900000
0.566667
0.570833
0.562500
0.562500
0.562500
0.566667
0.562500
0.558333
0.562500
0.562500
0.566667
0.558333
0.558333
0.566667
0.562500
0.558333
0.562500
0.562500
0.566667
0.562500
0.558333
0.562500
0.566667
0.570833
0.558333
0.558333
0.562500
0.562500
0.566667
0.562500
0.550000
0.566667
0.562500
0.566667
0.562500
0.562500
0.650000
0.475000
0.495833
0.629167
0.550000
0.587500
0.550000
0.566667
0.570833
0.562500
0.566667
0.562500
0.570833
0.566667
0.566667
0.566667
0.575000
0.275000
0.866667
0.570833
0.570833
0.575000
0.570833
0.570833
0.575000
0.570833
0.579167
0.579167
0.575000
0.579167
0.575000
0.579167
0.587500
0.579167
0.579167
0.579167
0.583333
0.341667
0.245833
0.575000
0.583333
0.583333
0.579167
0.579167
0.587500
0.583333
0.583333
0.579167
0.583333
0.579167
0.575000
0.575000
0.441667
0.670833
0.591667
0.570833
0.437500
0.670833
0.587500
0.570833
0.437500
0.662500
0.587500
0.566667
0.437500
0.650000
0.583333
0.437500
0.645833
0.579167
0.562500
0.433333
0.662500
0.575000
0.562500
0.437500
0.650000
0.579167
0.558333
0.433333
0.362500
0.279167
0.575000
0.433333
0.650000
0.291667
0.279167
0.562500
0.429167
0.650000
0.575000
0.562500
0.558333
0.558333
0.558333
0.433333
0.650000
0.575000
0.558333
0.558333
0.437500
0.654167
0.575000
0.558333
0.562500
0.558333
0.558333
0.558333
0.566667
0.558333
0.558333
0.554167
0.558333
0.558333
0.562500
0.566667
0.720833
0.400000
0.558333
0.558333
0.562500
0.454167
0.670833
0.558333
0.558333
0.562500
0.562500
0.566667
0.562500
0.558333
0.562500
0.566667
0.562500
0.558333
0.558333
0.562500
0.425000
0.445833
0.262500
0.562500
0.650000
0.470833
0.550000
0.220833
0.354167
0.558333
0.562500
0.566667
0.558333
0.562500
0.558333
0.558333
0.566667
0.558333
0.462500
0.654167
0.558333
0.566667
0.566667
0.558333
0.558333
0.558333
0.562500
0.558333
0.570833
0.387500
0.375000
0.575000
0.470833
0.579167
0.416667
0.558333
0.558333
0.558333
0.562500
0.562500
0.558333
0.558333
0.562500
0.562500
0.558333
0.558333
0.741667
0.383333
0.258333
0.308333
0.562500
0.558333
0.562500
0.566667
0.570833
0.558333
0.562500
0.562500
0.562500
0.562500
0.562500
0.566667
0.562500
0.558333
0.308333
0.258333
0.270833
0.120833
0.679167
0.304167
0.875000
0.566667
0.566667
0.570833
0.566667
0.562500
0.562500
0.570833
0.575000
0.562500
0.566667
0.562500
0.570833
0.575000
0.558333
0.566667
0.562500
0.570833
0.566667
0.562500
0.562500
0.562500
0.562500
0.566667
0.562500
0.562500
0.562500
0.566667
0.562500
0.562500
0.558333
0.558333
0.566667
0.562500
0.558333
0.562500
0.554167
0.562500
0.566667
0.562500
0.558333
0.558333
0.558333
0.487500
0.633333
0.312500
0.241667
0.562500
0.558333
0.562500
0.529167
0.579167
0.554167
0.554167
0.558333
0.558333
0.562500
0.558333
0.558333
0.425000
0.683333
0.562500
0.562500
0.554167
0.554167
0.558333
0.558333
0.562500
0.554167
0.558333
0.554167
0.562500
0.562500
0.554167
0.554167
0.416667
0.704167
0.558333
0.554167
0.554167
0.558333
0.562500
0.558333
0.554167
0.558333
0.558333
0.562500
0.554167
0.554167
0.558333
0.558333
0.558333
0.562500
0.562500
0.558333
0.558333
0.308333
0.408333
0.545833
0.204167
0.216667
0.566667
0.562500
0.570833
0.570833
0.562500
0.562500
0.566667
0.575000
0.566667
0.566667
0.566667
0.566667
0.570833
0.575000
0.562500
0.566667
0.562500
0.570833
0.570833
0.566667
0.558333
0.566667
0.566667
0.566667
0.562500
0.558333
0.562500
0.566667
0.566667
0.558333
0.558333
0.558333
0.562500
0.566667
0.558333
0.562500
0.558333
0.420833
0.712500
0.550000
0.558333
0.562500
0.558333
0.629167
0.495833
0.558333
0.658333
0.458333
0.566667
0.558333
0.558333
0.558333
0.562500
0.562500
0.562500
0.566667
0.562500
0.562500
0.566667
0.570833
0.562500
0.566667
0.558333
0.579167
0.566667
0.566667
0.566667
0.566667
0.575000
0.566667
0.562500
0.562500
0.570833
0.575000
0.566667
0.562500
0.562500
0.566667
0.570833
0.562500
0.562500
0.562500
0.566667
0.575000
0.562500
0.562500
0.558333
0.566667
0.566667
0.570833
0.558333
0.562500
0.562500
0.566667
0.562500
0.558333
0.558333
0.562500
0.562500
0.566667
0.558333
0.558333
0.554167
0.562500
0.562500
0.562500
0.558333
0.562500
0.283333
0.187500
0.454167
0.458333
0.300000
0.562500
0.566667
0.562500
0.562500
0.562500
0.562500
0.570833
0.562500
0.566667
0.562500
0.570833
0.566667
0.570833
0.575000
0.570833
0.566667
0.566667
0.570833
0.575000
0.570833
0.566667
0.570833
0.575000
0.566667
0.566667
0.562500
0.570833
0.570833
0.562500
0.562500
0.558333
0.566667
0.570833
0.562500
