0.583333
0.587500
0.570833
0.604167
0.608333
0.612500
0.583333
0.595833
0.604167
0.595833
0.595833
0.604167
0.583333
0.600000
0.608333
0.579167
0.579167
0.591667
0.587500
0.595833
0.591667
0.604167
0.595833
0.595833
0.612500
0.587500
0.616667
0.570833
0.650000
0.750000
0.683333
0.670833
0.670833
0.675000
0.645833
0.620833
0.341667
0.912500
0.608333
0.583333
0.562500
0.566667
0.562500
0.554167
0.562500
0.554167
0.554167
0.554167
0.562500
0.550000
0.562500
0.550000
0.550000
0.550000
0.104167
0.345833
0.654167
0.545833
0.558333
0.566667
0.545833
0.545833
0.545833
0.545833
0.554167
0.545833
0.554167
0.545833
0.558333
0.337500
0.404167
0.345833
0.537500
0.541667
0.529167
0.533333
0.529167
0.541667
0.545833
0.545833
0.541667
0.545833
0.554167
0.558333
0.575000
0.466667
0.100000
0.225000
0.341667
0.554167
0.554167
0.541667
0.550000
0.579167
0.558333
0.575000
0.566667
0.575000
0.608333
0.608333
0.579167
0.587500
0.304167
0.287500
0.575000
0.583333
0.570833
0.620833
0.620833
0.612500
0.595833
0.604167
0.583333
0.595833
0.608333
0.600000
0.595833
0.575000
0.633333
0.783333
0.520833
0.891667
0.695833
0.691667
0.675000
0.654167
0.670833
0.670833
0.654167
0.641667
0.662500
0.654167
0.645833
0.604167
0.558333
0.562500
0.545833
0.545833
0.545833
0.541667
0.550000
0.537500
0.545833
0.470833
0.520833
0.320833
0.825000
0.529167
0.525000
0.525000
0.537500
0.545833
0.545833
0.554167
0.545833
0.558333
0.558333
0.566667
0.579167
0.587500
0.591667
0.600000
0.608333
0.237500
0.362500
0.270833
0.316667
0.316667
0.262500
0.612500
0.600000
0.570833
0.575000
0.579167
0.583333
0.575000
0.562500
0.583333
0.562500
0.587500
0.562500
0.566667
0.583333
0.570833
0.558333
0.558333
0.554167
0.570833
0.562500
0.570833
0.558333
0.558333
0.541667
0.545833
0.445833
0.300000
0.375000
0.500000
0.537500
0.533333
0.529167
0.537500
0.545833
0.545833
0.545833
0.550000
0.550000
0.554167
0.570833
0.583333
0.562500
0.562500
0.591667
0.575000
0.587500
0.608333
0.591667
0.595833
0.604167
0.604167
0.616667
0.637500
0.733333
0.662500
0.675000
0.675000
0.670833
0.666667
0.645833
0.658333
0.654167
0.650000
0.637500
0.650000
0.645833
0.645833
0.645833
0.637500
0.641667
0.608333
0.612500
0.591667
0.633333
0.666667
0.683333
0.629167
0.620833
0.616667
0.608333
0.616667
0.612500
0.620833
0.612500
0.604167
0.616667
0.641667
0.708333
0.620833
0.787500
0.683333
0.675000
0.658333
0.691667
0.695833
0.691667
0.670833
0.475000
0.208333
0.666667
0.662500
0.633333
0.612500
0.454167
0.137500
0.562500
0.558333
0.558333
0.554167
0.562500
0.566667
0.570833
0.587500
0.579167
0.579167
0.570833
0.575000
0.575000
0.454167
0.470833
0.208333
0.554167
0.562500
0.562500
0.545833
0.558333
0.570833
0.579167
0.566667
0.566667
0.570833
0.579167
0.595833
0.583333
0.600000
0.612500
0.604167
0.595833
0.575000
0.570833
0.575000
0.562500
0.720833
0.650000
0.654167
0.633333
0.650000
0.645833
0.637500
0.787500
0.262500
0.816667
0.583333
0.550000
0.550000
0.554167
0.566667
0.562500
0.545833
0.541667
0.537500
0.545833
0.545833
0.541667
0.550000
0.562500
0.558333
0.558333
0.554167
0.545833
0.558333
0.554167
0.550000
0.545833
0.550000
0.545833
0.554167
0.554167
0.575000
0.550000
0.545833
0.545833
0.537500
0.537500
0.537500
0.533333
0.533333
0.529167
0.554167
0.545833
0.554167
0.545833
0.558333
0.537500
0.554167
0.554167
0.558333
0.554167
0.550000
0.554167
0.562500
0.554167
0.545833
0.558333
0.558333
0.554167
0.554167
0.545833
0.550000
0.554167
0.554167
0.562500
0.550000
0.550000
0.187500
0.362500
0.545833
0.541667
0.541667
0.541667
0.533333
0.545833
0.554167
0.708333
0.366667
0.537500
0.545833
0.537500
0.529167
0.529167
0.537500
0.533333
0.529167
0.541667
0.541667
0.537500
0.550000
0.529167
0.541667
0.541667
0.541667
0.537500
0.529167
0.533333
0.291667
0.237500
0.537500
1.054167
0.529167
0.533333
0.533333
0.533333
0.537500
0.533333
0.529167
0.529167
0.525000
0.529167
0.529167
0.537500
0.529167
0.529167
0.533333
0.533333
0.541667
0.550000
0.545833
0.675000
0.400000
0.537500
0.545833
0.533333
0.529167
0.541667
0.529167
0.329167
0.204167
0.533333
0.525000
0.533333
0.529167
0.533333
0.529167
0.529167
0.529167
0.529167
0.525000
0.533333
0.529167
0.525000
0.529167
0.525000
0.525000
0.525000
0.525000
0.520833
0.529167
0.525000
0.525000
0.520833
0.525000
0.529167
0.533333
0.529167
0.216667
0.833333
0.525000
0.520833
0.525000
0.525000
0.525000
0.516667
0.525000
0.525000
0.529167
0.525000
0.520833
0.529167
0.533333
0.533333
0.529167
0.520833
0.520833
0.525000
0.525000
0.520833
0.516667
0.525000
0.541667
0.533333
0.525000
0.529167
0.533333
0.533333
0.533333
0.541667
0.537500
0.545833
0.554167
0.550000
0.545833
0.558333
0.550000
0.562500
0.562500
0.562500
0.579167
0.558333
0.562500
0.570833
0.554167
0.583333
0.583333
0.566667
0.587500
0.562500
0.575000
0.566667
0.554167
0.545833
0.558333
0.554167
0.554167
0.537500
0.541667
0.900000
0.187500
0.470833
0.604167
0.529167
0.533333
0.537500
0.520833
0.529167
0.529167
0.462500
0.583333
0.529167
1.045833
0.520833
0.533333
0.545833
0.537500
0.533333
0.537500
0.537500
0.533333
0.537500
0.529167
0.537500
0.533333
0.533333
0.541667
0.533333
0.545833
0.541667
0.541667
0.537500
0.479167
0.362500
0.408333
0.345833
0.525000
0.525000
0.520833
0.525000
0.529167
0.529167
0.537500
0.533333
0.533333
0.537500
0.537500
0.562500
0.550000
0.545833
0.545833
0.550000
0.570833
0.554167
0.554167
0.554167
0.554167
0.558333
0.537500
0.533333
0.537500
0.529167
0.533333
0.537500
0.533333
0.529167
0.545833
0.533333
0.529167
0.525000
0.525000
0.529167
0.520833
0.533333
0.525000
0.687500
0.883333
0.520833
0.520833
0.529167
0.516667
0.525000
0.525000
0.529167
0.525000
0.520833
0.525000
0.408333
0.287500
0.345833
0.525000
0.512500
0.516667
0.520833
0.670833
0.675000
0.191667
0.054167
0.425000
0.550000
0.433333
0.087500
0.629167
0.383333
0.508333
0.520833
0.516667
0.516667
0.512500
0.508333
0.512500
0.508333
0.508333
0.504167
0.508333
0.508333
0.508333
0.504167
0.512500
0.504167
0.508333
0.495833
0.504167
0.504167
0.508333
0.504167
0.404167
0.633333
0.525000
0.516667
0.508333
0.504167
0.508333
0.512500
0.504167
0.508333
0.508333
0.508333
0.520833
0.520833
0.516667
0.520833
0.516667
0.529167
0.525000
0.525000
0.520833
0.525000
0.525000
0.529167
0.391667
0.641667
0.525000
0.512500
0.512500
0.508333
0.504167
0.508333
0.508333
0.508333
0.512500
0.508333
0.516667
0.516667
0.512500
0.508333
0.516667
0.516667
0.525000
0.516667
0.525000
0.525000
0.520833
0.533333
0.516667
0.529167
0.529167
0.533333
0.537500
0.529167
0.533333
0.520833
0.529167
0.525000
0.537500
0.525000
0.520833
0.525000
0.566667
0.612500
0.608333
0.750000
0.350000
0.566667
0.545833
0.679167
0.387500
0.533333
0.525000
0.520833
0.512500
0.520833
0.508333
0.516667
0.516667
0.520833
0.512500
0.504167
0.520833
1.025000
0.512500
0.220833
0.291667
0.520833
0.525000
0.516667
0.529167
0.525000
0.529167
0.533333
0.529167
0.512500
0.525000
0.516667
0.516667
0.508333
0.520833
0.520833
0.520833
0.512500
0.525000
0.516667
0.533333
0.529167
0.529167
0.529167
0.525000
0.520833
0.512500
0.516667
0.550000
0.487500
0.750000
0.279167
0.508333
0.520833
0.262500
0.270833
0.475000
0.387500
0.637500
0.670833
0.412500
0.541667
0.375000
0.333333
0.333333
0.516667
0.229167
0.370833
0.625000
0.320833
0.379167
0.633333
0.520833
0.508333
0.512500
0.408333
0.600000
0.520833
0.512500
0.508333
0.504167
0.500000
0.504167
0.504167
1.020833
0.495833
0.345833
0.679167
0.500000
0.512500
0.508333
0.512500
0.525000
0.516667
0.512500
0.520833
0.516667
0.525000
0.512500
0.525000
0.525000
0.525000
0.520833
0.383333
0.650000
0.533333
0.537500
0.537500
0.733333
0.350000
0.533333
0.533333
0.533333
0.520833
0.529167
0.525000
0.520833
0.529167
0.516667
0.525000
0.520833
0.529167
0.516667
0.520833
0.525000
0.525000
0.520833
0.520833
0.516667
0.520833
0.520833
0.520833
0.516667
0.516667
0.520833
0.529167
0.516667
0.520833
0.520833
0.525000
0.529167
0.525000
0.516667
0.516667
0.137500
0.387500
0.512500
0.512500
0.516667
0.520833
0.437500
0.600000
0.516667
0.508333
0.508333
0.516667
0.504167
0.504167
0.500000
0.508333
0.504167
0.508333
0.508333
0.508333
0.516667
0.516667
0.508333
0.512500
0.508333
0.512500
0.508333
0.508333
0.512500
0.508333
0.512500
0.512500
0.516667
0.508333
0.512500
0.516667
0.516667
0.516667
0.516667
0.512500
0.508333
0.512500
0.516667
0.525000
0.520833
0.520833
0.508333
0.516667
0.512500
0.520833
0.512500
0.512500
0.508333
0.512500
0.508333
0.512500
0.512500
0.525000
0.516667
0.520833
0.516667
0.525000
0.525000
0.537500
0.541667
0.529167
0.537500
0.516667
0.525000
0.529167
0.520833
0.525000
0.516667
0.516667
0.512500
0.341667
0.825000
0.329167
0.566667
0.320833
0.200000
0.512500
0.508333
0.516667
0.512500
0.512500
0.512500
0.504167
0.512500
0.504167
0.500000
0.283333
0.225000
0.641667
0.345833
0.500000
0.504167
0.495833
0.504167
0.504167
0.500000
0.995833
0.495833
0.500000
0.504167
0.512500
0.500000
0.504167
0.504167
0.512500
0.516667
0.520833
0.512500
0.520833
0.525000
0.512500
0.533333
0.533333
0.520833
0.525000
0.508333
0.508333
0.512500
0.508333
0.500000
0.358333
0.562500
0.316667
0.283333
0.400000
0.412500
0.683333
0.504167
1.012500
0.500000
0.491667
0.500000
0.500000
0.979167
0.995833
0.500000
0.983333
0.558333
0.541667
0.533333
0.525000
0.666667
0.533333
0.391667
0.533333
0.525000
0.466667
0.579167
0.520833
0.529167
0.558333
0.537500
0.712500
0.383333
0.341667
0.895833
0.408333
0.545833
0.100000
0.441667
0.562500
0.441667
0.100000
0.429167
0.391667
0.779167
0.562500
0.995833
0.529167
0.537500
0.529167
0.520833
0.520833
0.541667
0.529167
0.541667
1.058333
1.054167
0.529167
0.533333
0.516667
0.529167
0.529167
0.533333
1.062500
0.550000
0.408333
0.425000
0.250000
0.533333
0.525000
0.529167
0.525000
1.054167
0.525000
0.533333
0.537500
0.554167
0.537500
0.545833
0.529167
0.525000
0.204167
0.829167
0.525000
0.533333
0.529167
0.520833
0.520833
0.516667
0.512500
0.508333
0.516667
0.508333
0.508333
0.520833
0.525000
0.516667
0.512500
0.512500
0.520833
0.304167
0.283333
0.137500
0.300000
0.504167
0.383333
0.375000
0.750000
0.508333
0.508333
0.504167
0.508333
0.512500
0.516667
0.516667
0.533333
0.525000
0.525000
0.520833
0.512500
0.512500
0.508333
0.512500
0.204167
0.608333
0.200000
0.504167
0.666667
0.333333
0.508333
0.662500
0.358333
0.512500
0.512500
0.512500
0.520833
0.529167
0.516667
0.525000
0.520833
0.520833
0.525000
0.512500
0.504167
0.508333
0.516667
0.791667
0.216667
0.504167
0.512500
0.375000
0.800000
0.545833
0.537500
0.545833
0.529167
0.525000
0.529167
0.591667
0.508333
1.212500
0.233333
0.291667
0.254167
0.391667
0.462500
0.291667
0.258333
0.704167
