0.562500
0.558333
0.558333
0.566667
0.562500
0.558333
0.575000
0.562500
0.558333
0.562500
0.570833
0.562500
0.562500
0.562500
0.558333
0.558333
0.562500
0.562500
0.570833
0.558333
0.562500
0.570833
0.558333
0.562500
0.566667
0.562500
0.558333
0.562500
0.562500
0.558333
0.566667
0.558333
0.562500
0.562500
0.566667
0.562500
0.558333
0.570833
0.562500
0.554167
0.566667
0.562500
0.554167
0.566667
0.558333
0.558333
0.562500
0.566667
0.558333
0.558333
0.570833
0.558333
0.558333
0.554167
0.566667
0.566667
0.562500
0.554167
0.566667
0.562500
0.558333
0.558333
0.570833
0.562500
0.554167
0.566667
0.562500
0.562500
0.558333
0.570833
0.562500
0.558333
0.558333
0.570833
0.558333
0.558333
0.562500
0.570833
0.562500
0.558333
0.562500
0.558333
0.558333
0.558333
0.562500
0.562500
0.558333
0.558333
0.562500
0.562500
0.554167
0.558333
0.566667
0.558333
0.558333
0.687500
0.441667
0.558333
0.562500
0.558333
0.566667
0.558333
0.562500
0.562500
0.570833
0.562500
0.558333
0.566667
0.566667
0.562500
0.558333
0.566667
0.562500
0.558333
0.562500
0.566667
0.700000
0.166667
0.254167
0.562500
0.562500
0.558333
0.566667
0.554167
0.558333
0.566667
0.558333
0.558333
0.558333
0.558333
0.554167
0.554167
0.566667
0.554167
0.554167
0.233333
0.320833
0.554167
0.554167
0.558333
0.562500
0.554167
0.550000
0.558333
0.554167
0.550000
0.554167
0.562500
0.554167
0.550000
0.562500
0.550000
0.554167
0.554167
0.562500
0.554167
0.554167
0.554167
0.558333
0.550000
0.558333
0.566667
0.554167
0.554167
0.562500
0.554167
0.554167
0.562500
0.562500
0.554167
0.558333
0.566667
0.558333
0.558333
0.566667
0.558333
0.554167
0.566667
0.558333
0.558333
0.566667
0.558333
0.558333
0.562500
0.558333
0.554167
0.562500
0.558333
0.554167
0.566667
0.554167
0.554167
0.562500
0.554167
0.558333
0.558333
0.562500
0.558333
0.558333
0.562500
0.558333
0.554167
0.562500
0.562500
0.554167
0.558333
0.562500
0.558333
0.558333
0.562500
0.200000
0.925000
0.554167
0.562500
0.562500
0.558333
0.554167
0.566667
0.554167
0.550000
0.558333
0.562500
0.554167
0.554167
0.558333
0.554167
0.554167
0.554167
0.566667
0.554167
0.554167
0.562500
0.558333
0.554167
0.554167
0.562500
0.554167
0.550000
0.558333
0.566667
0.554167
0.550000
0.558333
0.558333
0.550000
0.550000
0.558333
0.554167
0.550000
0.554167
0.562500
0.554167
0.550000
0.558333
0.558333
0.554167
0.550000
0.558333
0.554167
0.745833
0.358333
0.566667
0.554167
0.550000
0.562500
0.550000
0.554167
0.558333
0.554167
0.554167
0.554167
0.562500
0.554167
0.550000
0.558333
0.550000
0.550000
0.554167
0.558333
0.550000
0.550000
0.558333
0.554167
0.550000
0.554167
0.550000
0.550000
0.554167
0.558333
0.550000
0.550000
0.554167
0.550000
0.550000
0.554167
0.558333
0.554167
0.545833
0.558333
0.554167
0.550000
0.554167
0.325000
0.237500
0.558333
0.554167
0.554167
0.562500
0.554167
0.554167
0.558333
0.562500
0.554167
0.558333
0.558333
0.570833
0.558333
0.554167
0.566667
0.558333
0.558333
0.208333
0.350000
0.570833
0.558333
0.566667
0.558333
0.558333
0.566667
0.562500
0.558333
0.566667
0.558333
0.558333
0.566667
0.558333
0.550000
0.229167
0.337500
0.558333
0.554167
0.329167
0.229167
0.554167
0.554167
0.558333
0.554167
0.554167
0.554167
0.558333
0.441667
0.450000
0.212500
0.558333
0.550000
0.545833
0.558333
0.550000
0.545833
0.554167
0.558333
0.545833
0.550000
0.558333
0.545833
0.550000
0.550000
0.558333
0.545833
0.545833
0.558333
0.545833
0.545833
0.554167
0.550000
0.545833
0.550000
0.558333
0.550000
0.545833
0.554167
0.558333
0.545833
0.550000
0.558333
0.545833
0.550000
0.545833
0.554167
0.550000
0.570833
0.533333
0.545833
0.554167
0.558333
0.550000
0.550000
0.562500
0.554167
0.554167
0.558333
0.550000
0.566667
0.554167
0.554167
0.566667
0.554167
0.558333
0.566667
0.554167
0.558333
0.566667
0.554167
0.558333
0.554167
0.333333
0.220833
0.558333
0.554167
0.554167
0.562500
0.554167
0.554167
0.562500
0.554167
0.554167
0.562500
0.550000
0.550000
0.558333
0.554167
0.545833
0.470833
0.637500
0.550000
0.554167
0.554167
0.550000
0.550000
0.558333
0.550000
0.545833
0.558333
0.550000
0.550000
0.329167
0.220833
0.554167
0.387500
0.712500
0.550000
0.558333
0.550000
0.550000
0.558333
0.558333
0.554167
0.550000
0.558333
0.558333
0.554167
0.550000
0.558333
0.558333
0.554167
0.554167
0.558333
0.558333
0.550000
0.558333
0.562500
0.554167
0.554167
0.558333
0.566667
0.554167
0.554167
0.562500
0.558333
0.554167
0.558333
0.566667
0.558333
0.554167
0.562500
0.566667
0.554167
0.558333
0.562500
0.558333
0.558333
0.554167
0.562500
0.562500
0.554167
0.558333
0.562500
0.558333
0.554167
0.554167
0.562500
0.554167
0.554167
0.554167
0.558333
0.558333
0.545833
0.562500
0.550000
0.550000
0.554167
0.562500
0.550000
0.550000
0.562500
0.550000
0.262500
0.354167
0.487500
0.550000
0.550000
0.558333
0.558333
0.550000
0.554167
0.562500
0.554167
0.550000
0.554167
0.554167
0.550000
0.558333
0.558333
0.554167
0.554167
0.558333
0.550000
0.550000
0.558333
0.558333
0.554167
0.554167
0.558333
0.554167
0.550000
0.558333
0.558333
0.550000
0.554167
0.558333
0.554167
0.550000
0.554167
0.562500
0.554167
0.550000
0.558333
0.566667
0.554167
0.554167
0.562500
0.558333
0.550000
0.562500
0.554167
0.554167
0.558333
0.562500
0.554167
0.558333
0.562500
0.554167
0.558333
0.562500
0.554167
0.554167
0.562500
0.558333
0.550000
0.558333
0.562500
0.554167
0.558333
0.562500
0.554167
0.654167
0.462500
0.554167
0.554167
0.562500
0.329167
0.220833
0.558333
0.558333
0.554167
0.295833
0.254167
0.558333
0.245833
0.308333
0.550000
0.558333
0.558333
0.554167
0.554167
0.562500
0.550000
0.554167
0.554167
0.558333
0.554167
0.550000
0.562500
0.554167
0.554167
0.550000
0.562500
0.558333
0.545833
0.558333
0.562500
0.554167
0.650000
0.275000
0.445833
0.841667
0.554167
0.320833
0.229167
0.541667
0.316667
0.237500
0.554167
0.545833
0.541667
0.195833
0.358333
0.545833
0.545833
0.550000
0.554167
0.550000
0.541667
0.558333
0.545833
0.545833
0.550000
0.554167
0.554167
0.541667
0.554167
0.558333
0.550000
0.545833
0.545833
0.554167
0.550000
0.545833
0.550000
0.545833
0.545833
0.550000
0.554167
0.545833
0.545833
0.545833
0.558333
0.545833
0.545833
0.550000
0.554167
0.550000
0.545833
0.545833
0.554167
0.550000
0.545833
0.550000
0.558333
0.545833
0.550000
0.550000
0.558333
0.554167
0.545833
0.554167
0.562500
0.554167
0.550000
0.558333
0.562500
0.554167
0.554167
0.554167
0.558333
0.566667
0.554167
0.554167
0.558333
0.562500
0.558333
0.554167
0.562500
0.558333
0.554167
0.562500
0.558333
0.554167
0.554167
0.562500
0.558333
0.550000
0.562500
0.562500
0.545833
0.558333
0.562500
0.554167
0.550000
0.562500
0.554167
0.554167
0.558333
0.562500
0.554167
0.554167
0.558333
0.554167
0.554167
0.554167
0.566667
0.554167
0.554167
0.562500
0.683333
0.345833
0.650000
0.558333
0.558333
0.541667
0.570833
0.558333
0.558333
0.562500
0.558333
0.554167
0.562500
0.558333
0.554167
0.562500
0.570833
0.562500
0.554167
0.566667
0.566667
0.554167
0.562500
0.566667
0.562500
0.558333
0.566667
0.562500
0.558333
0.558333
0.570833
0.558333
0.562500
0.562500
0.570833
0.562500
0.558333
0.566667
0.562500
0.558333
0.558333
0.566667
0.562500
0.570833
0.562500
0.558333
0.566667
0.558333
0.558333
0.562500
0.566667
0.558333
0.562500
0.566667
0.558333
0.558333
0.562500
0.779167
0.158333
0.395833
0.341667
0.666667
0.458333
0.554167
0.554167
0.566667
0.554167
0.550000
0.562500
0.554167
0.550000
0.554167
0.558333
0.554167
0.545833
0.550000
0.558333
0.550000
0.550000
0.550000
0.558333
0.550000
0.545833
0.550000
0.545833
0.550000
0.545833
0.554167
0.554167
0.541667
0.554167
0.545833
0.545833
0.550000
0.554167
0.545833
0.545833
0.550000
0.545833
0.545833
0.545833
0.537500
0.258333
0.304167
0.541667
0.550000
0.545833
0.541667
0.558333
0.545833
0.545833
0.545833
0.558333
0.545833
0.545833
0.462500
0.641667
0.550000
0.554167
0.558333
0.550000
0.550000
0.554167
0.554167
0.545833
0.554167
0.558333
0.554167
0.550000
0.554167
0.558333
0.554167
0.554167
0.562500
0.550000
0.550000
0.554167
0.550000
0.550000
0.554167
0.670833
0.437500
0.550000
0.550000
0.545833
0.554167
0.550000
0.545833
0.545833
0.554167
0.550000
0.541667
0.550000
0.558333
0.545833
0.541667
0.554167
0.554167
0.545833
0.545833
0.550000
0.545833
0.545833
0.545833
0.554167
0.545833
0.545833
0.541667
0.554167
0.545833
0.545833
0.541667
0.558333
0.545833
0.545833
0.545833
0.554167
0.545833
0.545833
0.554167
0.545833
0.545833
0.554167
0.545833
0.550000
0.550000
0.550000
0.550000
0.550000
0.545833
0.554167
0.554167
0.550000
0.554167
0.558333
0.554167
0.558333
0.562500
0.554167
0.562500
0.562500
0.558333
0.566667
0.558333
0.558333
0.566667
0.562500
0.558333
0.395833
0.704167
1.141667
0.358333
0.200000
0.554167
0.562500
0.554167
0.550000
0.558333
0.554167
0.554167
0.554167
0.558333
0.554167
0.550000
0.554167
0.550000
0.550000
0.550000
0.562500
0.550000
0.545833
0.554167
0.550000
0.545833
0.550000
0.554167
0.545833
0.545833
0.550000
0.558333
0.545833
0.545833
0.554167
0.545833
0.550000
0.545833
0.554167
0.550000
0.545833
0.554167
0.550000
0.545833
0.554167
0.550000
0.541667
0.554167
0.550000
0.545833
0.545833
0.558333
0.545833
0.545833
0.554167
0.550000
0.541667
0.554167
0.550000
0.550000
0.545833
0.558333
0.550000
0.545833
0.554167
0.545833
0.550000
0.554167
0.558333
0.554167
0.545833
0.558333
0.554167
0.545833
0.558333
0.550000
0.550000
0.550000
0.562500
0.550000
0.550000
0.554167
0.729167
0.145833
0.787500
0.550000
0.550000
0.545833
0.554167
0.558333
0.550000
0.545833
0.550000
0.545833
0.545833
0.550000
0.554167
0.550000
0.541667
0.554167
0.545833
0.541667
0.550000
0.550000
0.550000
0.541667
0.550000
0.545833
0.541667
0.545833
0.554167
0.541667
0.541667
0.545833
0.554167
0.541667
0.537500
0.550000
0.545833
0.545833
0.541667
0.550000
0.545833
0.541667
0.545833
0.554167
0.545833
0.541667
0.550000
0.545833
0.541667
0.545833
0.550000
0.541667
0.545833
0.545833
0.545833
0.541667
0.545833
0.554167
0.225000
0.316667
0.541667
0.545833
0.554167
0.541667
0.541667
0.550000
0.545833
0.541667
0.550000
0.604167
0.487500
0.541667
0.545833
0.554167
0.545833
0.545833
0.550000
0.554167
0.550000
0.550000
0.558333
0.550000
0.545833
0.554167
0.558333
0.554167
0.550000
0.558333
0.550000
0.554167
0.558333
0.562500
0.554167
0.554167
0.562500
0.562500
0.558333
0.558333
0.566667
0.558333
0.558333
0.558333
0.420833
0.150000
0.250000
0.308333
0.554167
0.562500
0.283333
0.270833
0.558333
0.554167
0.562500
0.558333
0.550000
0.550000
0.562500
0.558333
0.550000
0.550000
0.554167
0.558333
