0.545833
0.541667
0.545833
0.550000
0.550000
0.545833
0.545833
0.545833
0.545833
0.545833
0.550000
0.545833
0.541667
0.545833
0.545833
0.545833
0.545833
0.545833
0.545833
0.545833
0.545833
0.550000
0.545833
0.545833
0.550000
0.545833
0.545833
0.545833
0.545833
0.550000
0.545833
0.541667
0.550000
0.541667
0.320833
0.379167
0.645833
0.579167
0.570833
0.554167
0.545833
0.545833
0.545833
0.545833
0.554167
0.545833
0.545833
0.545833
0.541667
0.545833
0.554167
0.545833
0.545833
0.541667
0.545833
0.545833
0.545833
0.545833
0.545833
0.541667
0.550000
0.545833
0.541667
0.550000
0.550000
0.545833
0.541667
0.550000
0.541667
0.550000
0.545833
0.541667
0.545833
0.550000
0.545833
0.541667
0.541667
0.541667
0.545833
0.541667
0.545833
0.545833
0.545833
0.545833
0.541667
0.550000
0.550000
0.545833
0.541667
0.545833
0.541667
0.545833
0.550000
0.545833
0.541667
0.541667
0.545833
0.541667
0.545833
0.545833
0.545833
0.545833
0.541667
0.545833
0.545833
0.550000
0.545833
0.550000
0.550000
0.554167
0.545833
0.425000
0.625000
0.550000
0.545833
0.429167
0.633333
0.554167
0.554167
0.408333
0.650000
0.558333
0.554167
0.550000
0.550000
0.554167
0.550000
0.550000
0.550000
0.550000
0.550000
0.550000
0.554167
0.550000
0.550000
0.550000
0.550000
0.550000
0.545833
0.545833
0.550000
0.550000
0.550000
0.545833
0.550000
0.545833
0.550000
0.545833
0.550000
0.545833
0.545833
0.554167
0.545833
0.545833
0.545833
0.541667
0.550000
0.545833
0.541667
0.550000
0.541667
0.545833
0.545833
0.545833
0.541667
0.420833
0.633333
0.554167
0.545833
0.412500
0.641667
0.554167
0.545833
0.541667
0.550000
0.545833
0.545833
0.541667
0.541667
0.550000
0.545833
0.541667
0.545833
0.541667
0.550000
0.545833
0.541667
0.545833
0.550000
0.545833
0.545833
0.554167
0.550000
0.545833
0.545833
0.554167
0.545833
0.545833
0.550000
0.541667
0.550000
0.550000
0.545833
0.541667
0.545833
0.545833
0.545833
0.545833
0.545833
0.554167
0.545833
0.545833
0.545833
0.545833
0.545833
0.550000
0.550000
0.541667
0.545833
0.541667
0.545833
0.545833
0.545833
0.550000
0.545833
0.541667
0.550000
0.545833
0.545833
0.545833
0.545833
0.541667
0.550000
0.545833
0.545833
0.554167
0.545833
0.550000
0.545833
0.545833
0.550000
0.550000
0.545833
0.545833
0.545833
0.550000
0.550000
0.550000
0.545833
0.550000
0.550000
0.550000
0.550000
0.554167
0.550000
0.404167
0.645833
0.558333
0.545833
0.441667
0.620833
0.558333
0.550000
0.545833
0.541667
0.545833
0.545833
0.545833
0.545833
0.545833
0.545833
0.545833
0.545833
0.550000
0.545833
0.545833
0.545833
0.550000
0.545833
0.545833
0.550000
0.554167
0.550000
0.545833
0.545833
0.545833
0.545833
0.545833
0.550000
0.550000
0.545833
0.545833
0.545833
0.545833
0.545833
0.550000
0.550000
0.545833
0.550000
0.545833
0.550000
0.550000
0.550000
0.554167
0.554167
0.550000
0.545833
0.550000
0.558333
0.550000
0.550000
0.550000
0.550000
0.550000
0.558333
0.550000
0.550000
0.554167
0.550000
0.554167
0.554167
0.554167
0.558333
0.558333
0.554167
0.554167
0.554167
0.554167
0.554167
0.554167
0.554167
0.554167
0.554167
0.554167
0.554167
0.554167
0.550000
0.558333
0.550000
0.558333
0.554167
0.554167
0.562500
0.550000
0.550000
0.545833
0.550000
0.550000
0.550000
0.554167
0.550000
0.554167
0.554167
0.558333
0.554167
0.554167
0.554167
0.558333
0.558333
0.554167
0.558333
0.558333
0.554167
0.558333
0.554167
0.558333
0.554167
0.554167
0.554167
0.554167
0.554167
0.554167
0.550000
0.554167
0.550000
0.550000
0.550000
0.550000
0.554167
0.554167
0.550000
0.550000
0.550000
0.550000
0.558333
0.550000
0.550000
0.545833
0.550000
0.550000
0.545833
0.550000
0.545833
0.550000
0.550000
0.545833
0.550000
0.550000
0.545833
0.550000
0.550000
0.554167
0.550000
0.550000
0.550000
0.550000
0.550000
0.550000
0.554167
0.550000
0.545833
0.550000
0.550000
0.550000
0.550000
0.550000
0.550000
0.550000
0.550000
0.554167
0.400000
0.645833
0.575000
0.554167
0.433333
0.629167
0.558333
0.529167
0.570833
0.550000
0.550000
0.420833
0.641667
0.558333
0.550000
0.408333
0.650000
0.558333
0.550000
0.412500
0.650000
0.558333
0.550000
0.554167
0.550000
0.545833
0.550000
0.545833
0.550000
0.550000
0.545833
0.550000
0.554167
0.550000
0.545833
0.550000
0.545833
0.550000
0.550000
0.550000
0.550000
0.558333
0.550000
0.550000
0.545833
0.550000
0.554167
0.550000
0.545833
0.550000
0.554167
0.550000
0.550000
0.545833
0.550000
0.550000
0.545833
0.550000
0.550000
0.554167
0.550000
0.550000
0.545833
0.545833
0.550000
0.554167
0.550000
0.545833
0.550000
0.545833
0.554167
0.550000
0.550000
0.545833
0.550000
0.550000
0.550000
0.554167
0.550000
0.554167
0.554167
0.550000
0.554167
0.554167
0.550000
0.550000
0.554167
0.550000
0.550000
0.554167
0.550000
0.550000
0.554167
0.554167
0.550000
0.550000
0.558333
0.554167
0.550000
0.550000
0.554167
0.429167
0.637500
0.558333
0.554167
0.433333
0.633333
0.562500
0.550000
0.425000
0.641667
0.558333
0.554167
0.416667
0.645833
0.566667
0.554167
0.400000
0.658333
0.558333
0.550000
0.412500
0.654167
0.562500
0.550000
0.550000
0.550000
0.550000
0.550000
0.550000
0.558333
0.550000
0.554167
0.554167
0.550000
0.550000
0.558333
0.545833
0.554167
0.554167
0.550000
0.545833
0.545833
0.550000
0.550000
0.554167
0.550000
0.554167
0.554167
0.554167
0.554167
0.558333
0.554167
0.558333
0.550000
0.558333
0.554167
0.558333
0.558333
0.558333
0.554167
0.554167
0.554167
0.554167
0.554167
0.554167
0.554167
0.550000
0.554167
0.550000
0.550000
0.550000
0.550000
0.550000
0.550000
0.550000
0.554167
0.550000
0.437500
0.633333
0.558333
0.554167
0.429167
0.637500
0.558333
0.554167
0.550000
0.550000
0.554167
0.550000
0.550000
0.550000
0.550000
0.550000
0.550000
0.554167
0.554167
0.550000
0.554167
0.554167
0.558333
0.554167
0.554167
0.554167
0.554167
0.554167
0.554167
0.558333
0.554167
0.554167
0.554167
0.550000
0.554167
0.554167
0.554167
0.554167
0.554167
0.554167
0.554167
0.554167
0.558333
0.554167
0.554167
0.554167
0.550000
0.554167
0.554167
0.554167
0.550000
0.550000
0.554167
0.545833
0.550000
0.554167
0.545833
0.554167
0.550000
0.554167
0.554167
0.550000
0.554167
0.554167
0.554167
0.550000
0.550000
0.558333
0.554167
0.550000
0.554167
0.550000
0.554167
0.550000
0.550000
0.550000
0.554167
0.550000
0.545833
0.554167
0.550000
0.550000
0.550000
0.550000
0.554167
0.550000
0.550000
0.550000
0.554167
0.550000
0.545833
0.550000
0.545833
0.554167
0.550000
0.550000
0.545833
0.554167
0.550000
0.554167
0.550000
0.554167
0.554167
0.550000
0.550000
0.420833
0.645833
0.558333
0.550000
0.433333
0.629167
0.558333
0.550000
0.408333
0.645833
0.558333
0.554167
0.400000
0.654167
0.562500
0.550000
0.408333
0.654167
0.562500
0.554167
0.412500
0.654167
0.562500
0.550000
0.408333
0.654167
0.562500
0.554167
0.400000
0.658333
0.562500
0.554167
0.400000
0.658333
0.562500
0.554167
0.554167
0.554167
0.554167
0.554167
0.554167
0.554167
0.554167
0.554167
0.550000
0.550000
0.550000
0.550000
0.554167
0.554167
0.554167
0.554167
0.554167
0.554167
0.554167
0.558333
0.554167
0.554167
0.558333
0.558333
0.558333
0.558333
0.558333
0.558333
0.558333
0.558333
0.558333
0.558333
0.554167
0.558333
0.558333
0.554167
0.554167
0.554167
0.554167
0.550000
0.558333
0.550000
0.550000
0.554167
0.437500
0.637500
0.562500
0.550000
0.429167
0.641667
0.562500
0.554167
0.412500
0.650000
0.566667
0.554167
0.404167
0.658333
0.562500
0.554167
0.408333
0.650000
0.566667
0.550000
0.404167
0.658333
0.566667
0.554167
0.554167
0.550000
0.554167
0.550000
0.445833
0.633333
0.562500
0.554167
0.412500
0.650000
0.562500
0.558333
0.408333
0.654167
0.566667
0.558333
0.408333
0.658333
0.562500
0.558333
0.554167
0.554167
0.554167
0.554167
0.550000
0.562500
0.554167
0.550000
0.558333
0.554167
0.554167
0.550000
0.562500
0.554167
0.554167
0.550000
0.554167
0.554167
0.550000
0.558333
0.550000
0.554167
0.550000
0.545833
0.554167
0.550000
0.550000
0.554167
0.554167
0.554167
0.554167
0.550000
0.562500
0.554167
0.554167
0.554167
0.558333
0.554167
0.554167
0.550000
0.558333
0.554167
0.550000
0.554167
0.550000
0.550000
0.554167
0.554167
0.550000
0.554167
0.554167
0.554167
0.554167
0.554167
0.554167
0.562500
0.558333
0.554167
0.550000
0.558333
0.558333
0.558333
0.554167
0.550000
0.554167
0.558333
0.554167
0.554167
0.554167
0.558333
0.554167
0.554167
0.558333
0.558333
0.554167
0.554167
0.491667
0.604167
0.425000
0.650000
0.562500
0.554167
0.412500
0.658333
0.558333
0.550000
0.554167
0.558333
0.550000
0.554167
0.554167
0.554167
0.554167
0.554167
0.441667
0.641667
0.562500
0.554167
0.554167
0.550000
0.554167
0.554167
0.558333
0.550000
0.554167
0.550000
0.554167
0.554167
0.554167
0.554167
0.554167
0.554167
0.558333
0.558333
0.554167
0.558333
0.562500
0.558333
0.554167
0.554167
0.558333
0.554167
0.554167
0.554167
0.554167
0.554167
0.554167
0.554167
0.558333
0.550000
0.554167
0.558333
0.554167
0.554167
0.554167
0.558333
0.554167
0.554167
0.554167
0.562500
0.550000
0.554167
0.558333
0.554167
0.550000
0.550000
0.550000
0.554167
0.558333
0.554167
0.558333
0.558333
0.558333
0.558333
0.562500
0.562500
0.558333
0.562500
0.562500
0.562500
0.562500
0.562500
0.558333
0.562500
0.558333
0.562500
0.558333
0.558333
0.558333
0.558333
0.558333
0.558333
0.558333
0.558333
0.558333
0.558333
0.562500
0.558333
0.558333
0.558333
0.562500
0.558333
0.562500
0.558333
0.429167
0.650000
0.566667
0.558333
0.437500
0.645833
0.562500
0.558333
0.412500
0.658333
0.566667
0.558333
0.416667
0.658333
0.566667
0.562500
0.554167
0.558333
0.558333
0.558333
0.554167
0.558333
0.562500
0.554167
0.554167
0.554167
0.554167
0.554167
0.558333
0.554167
0.558333
0.558333
0.558333
0.558333
0.558333
0.558333
0.558333
0.554167
0.562500
0.558333
0.558333
0.558333
0.554167
0.558333
0.554167
0.558333
0.558333
0.558333
0.554167
0.554167
0.554167
0.558333
0.558333
0.558333
0.558333
0.558333
0.558333
0.554167
0.562500
0.558333
0.558333
0.558333
0.554167
0.562500
0.558333
0.558333
0.554167
0.554167
0.554167
0.554167
0.554167
0.554167
0.554167
0.562500
0.554167
0.554167
0.558333
0.554167
0.554167
0.558333
0.554167
0.558333
0.558333
0.554167
0.554167
0.558333
0.554167
0.554167
0.554167
0.554167
0.550000
0.554167
0.554167
0.550000
0.554167
0.554167
0.554167
0.554167
0.554167
0.558333
0.554167
0.554167
0.554167
0.554167
0.554167
0.554167
0.554167
0.558333
0.420833
0.645833
0.562500
0.558333
0.554167
0.554167
0.558333
0.554167
0.558333
0.554167
0.558333
0.558333
0.554167
0.558333
0.554167
