0.529167
0.525000
0.525000
0.529167
0.525000
0.529167
0.525000
0.525000
0.525000
0.529167
0.525000
0.529167
0.525000
0.525000
0.529167
0.529167
0.525000
0.529167
0.525000
0.529167
0.525000
0.529167
0.525000
0.529167
0.525000
0.529167
0.525000
0.529167
0.525000
0.529167
0.529167
0.525000
0.529167
0.525000
0.525000
0.533333
0.525000
0.529167
0.525000
0.525000
0.529167
0.529167
0.525000
0.529167
0.525000
0.529167
0.525000
0.525000
0.525000
0.529167
0.387500
0.670833
0.529167
0.525000
0.529167
0.529167
0.525000
0.525000
0.529167
0.529167
0.529167
0.529167
0.525000
0.525000
0.525000
0.533333
0.525000
0.529167
0.525000
0.529167
0.529167
0.525000
0.529167
0.525000
0.529167
0.525000
0.525000
0.529167
0.525000
0.520833
0.529167
0.529167
0.525000
0.525000
0.525000
0.525000
0.525000
0.529167
0.529167
0.525000
0.525000
0.525000
0.529167
0.529167
0.525000
0.525000
0.525000
0.525000
0.529167
0.529167
0.525000
0.529167
0.520833
0.525000
0.525000
0.529167
0.529167
0.525000
0.525000
0.529167
0.525000
0.529167
0.525000
0.525000
0.529167
0.529167
0.529167
0.529167
0.525000
0.525000
0.529167
0.529167
0.525000
0.529167
0.525000
0.529167
0.529167
0.529167
0.525000
0.525000
0.525000
0.529167
0.529167
0.525000
0.529167
0.529167
0.529167
0.525000
0.525000
0.529167
0.525000
0.529167
0.529167
0.525000
0.529167
0.525000
0.529167
0.529167
0.525000
0.529167
0.525000
0.529167
0.525000
0.529167
0.529167
0.525000
0.525000
0.529167
0.525000
0.529167
0.525000
0.529167
0.525000
0.520833
0.529167
0.525000
0.525000
0.525000
0.520833
0.529167
0.525000
0.525000
0.525000
0.525000
0.525000
0.525000
0.525000
0.529167
0.525000
0.525000
0.529167
0.525000
0.529167
0.525000
0.525000
0.562500
0.508333
0.529167
0.525000
0.525000
0.525000
0.525000
0.529167
0.529167
0.525000
0.529167
0.525000
0.529167
0.529167
0.525000
0.529167
0.529167
0.525000
0.529167
0.529167
0.529167
0.529167
0.525000
0.525000
0.529167
0.529167
0.529167
0.529167
0.525000
0.529167
0.529167
0.533333
0.529167
0.525000
0.529167
0.529167
0.529167
0.529167
0.525000
0.525000
0.533333
0.529167
0.529167
0.525000
0.529167
0.525000
0.525000
0.533333
0.529167
0.529167
0.529167
0.525000
0.529167
0.529167
0.529167
0.529167
0.529167
0.525000
0.529167
0.529167
0.525000
0.525000
0.529167
0.529167
0.529167
0.529167
0.525000
0.529167
0.529167
0.529167
0.525000
0.529167
0.525000
0.529167
0.529167
0.525000
0.525000
0.529167
0.529167
0.533333
0.529167
0.525000
0.529167
0.525000
0.529167
0.533333
0.529167
0.525000
0.529167
0.529167
0.529167
0.529167
0.529167
0.529167
0.529167
0.525000
0.529167
0.529167
0.529167
0.529167
0.525000
0.529167
0.529167
0.529167
0.529167
0.529167
0.562500
0.508333
0.525000
0.533333
0.525000
0.529167
0.525000
0.529167
0.529167
0.529167
0.525000
0.529167
0.529167
0.525000
0.533333
0.529167
0.525000
0.529167
0.529167
0.529167
0.529167
0.529167
0.529167
0.525000
0.529167
0.533333
0.525000
0.529167
0.525000
0.529167
0.529167
0.529167
0.525000
0.529167
0.525000
0.529167
0.529167
0.529167
0.525000
0.529167
0.529167
0.529167
0.529167
0.529167
0.525000
0.525000
0.529167
0.529167
0.525000
0.529167
0.525000
0.529167
0.529167
0.525000
0.529167
0.529167
0.525000
0.529167
0.525000
0.529167
0.525000
0.525000
0.529167
0.529167
0.529167
0.525000
0.525000
0.529167
0.529167
0.529167
0.529167
0.525000
0.529167
0.529167
0.529167
0.529167
0.529167
0.525000
0.525000
0.529167
0.529167
0.529167
0.525000
0.529167
0.525000
0.529167
0.533333
0.525000
0.533333
0.525000
0.529167
0.533333
0.529167
0.533333
0.529167
0.529167
0.529167
0.529167
0.529167
0.529167
0.529167
0.529167
0.529167
0.529167
0.529167
0.529167
0.525000
0.529167
0.529167
0.529167
0.525000
0.529167
0.529167
0.525000
0.529167
0.529167
0.529167
0.529167
0.529167
0.529167
0.529167
0.525000
0.529167
0.529167
0.525000
0.529167
0.529167
0.525000
0.525000
0.529167
0.529167
0.529167
0.525000
0.525000
0.529167
0.529167
0.529167
0.529167
0.525000
0.525000
0.529167
0.529167
0.529167
0.525000
0.529167
0.525000
0.529167
0.525000
0.529167
0.525000
0.529167
0.525000
0.529167
0.529167
0.529167
0.520833
0.529167
0.525000
0.533333
0.525000
0.529167
0.520833
0.529167
0.529167
0.529167
0.529167
0.525000
0.525000
0.529167
0.529167
0.525000
0.525000
0.525000
0.525000
0.529167
0.525000
0.529167
0.525000
0.525000
0.525000
0.529167
0.529167
0.529167
0.525000
0.529167
0.525000
0.529167
0.529167
0.525000
0.529167
0.525000
0.529167
0.525000
0.529167
0.525000
0.525000
0.525000
0.533333
0.525000
0.529167
0.529167
0.525000
0.529167
0.529167
0.525000
0.529167
0.525000
0.529167
0.529167
0.529167
0.525000
0.529167
0.525000
0.529167
0.529167
0.525000
0.525000
0.529167
0.525000
0.533333
0.529167
0.529167
0.525000
0.529167
0.529167
0.529167
0.529167
0.525000
0.529167
0.525000
0.529167
0.529167
0.525000
0.529167
0.525000
0.525000
0.529167
0.525000
0.525000
0.529167
0.525000
0.533333
0.525000
0.529167
0.525000
0.529167
0.525000
0.525000
0.529167
0.529167
0.525000
0.529167
0.529167
0.533333
0.529167
0.525000
0.525000
0.529167
0.529167
0.529167
0.529167
0.525000
0.525000
0.529167
0.529167
0.529167
0.529167
0.525000
0.533333
0.395833
0.662500
0.529167
0.529167
0.525000
0.533333
0.529167
0.525000
0.529167
0.529167
0.529167
0.529167
0.529167
0.529167
0.525000
0.529167
0.529167
0.529167
0.529167
0.529167
0.525000
0.533333
0.525000
0.529167
0.525000
0.529167
0.525000
0.533333
0.529167
0.529167
0.525000
0.533333
0.525000
0.529167
0.529167
0.529167
0.525000
0.529167
0.529167
0.529167
0.529167
0.529167
0.525000
0.525000
0.529167
0.533333
0.525000
0.529167
0.529167
0.525000
0.529167
0.529167
0.529167
0.529167
0.525000
0.529167
0.529167
0.529167
0.529167
0.529167
0.562500
0.508333
0.525000
0.533333
0.525000
0.529167
0.525000
0.529167
0.529167
0.529167
0.529167
0.529167
0.529167
0.533333
0.529167
0.529167
0.529167
0.533333
0.529167
0.529167
0.533333
0.529167
0.529167
0.525000
0.533333
0.529167
0.529167
0.529167
0.529167
0.533333
0.529167
0.533333
0.562500
0.512500
0.529167
0.533333
0.525000
0.533333
0.533333
0.529167
0.529167
0.529167
0.529167
0.529167
0.533333
0.529167
0.533333
0.529167
0.533333
0.533333
0.529167
0.529167
0.533333
0.529167
0.533333
0.529167
0.533333
0.529167
0.529167
0.537500
0.529167
0.529167
0.529167
0.533333
0.529167
0.529167
0.529167
0.533333
0.529167
0.533333
0.529167
0.529167
0.529167
0.533333
0.529167
0.529167
0.529167
0.525000
0.533333
0.529167
0.529167
0.529167
0.529167
0.533333
0.529167
0.533333
0.529167
0.529167
0.529167
0.533333
0.529167
0.566667
0.512500
0.529167
0.529167
0.529167
0.529167
0.529167
0.533333
0.529167
0.529167
0.529167
0.529167
0.529167
0.529167
0.529167
0.529167
0.533333
0.529167
0.529167
0.525000
0.529167
0.533333
0.525000
0.529167
0.529167
0.525000
0.529167
0.533333
0.529167
0.529167
0.533333
0.529167
0.529167
0.525000
0.525000
0.533333
0.529167
0.562500
0.512500
0.529167
0.529167
0.529167
0.525000
0.529167
0.529167
0.529167
0.562500
0.512500
0.525000
0.529167
0.529167
0.525000
0.525000
0.537500
0.525000
0.529167
0.525000
0.533333
0.525000
0.529167
0.520833
0.529167
0.525000
0.525000
0.525000
0.525000
0.529167
0.520833
0.525000
0.525000
0.516667
0.558333
0.508333
0.512500
0.558333
0.504167
0.516667
0.558333
0.504167
0.525000
0.516667
0.554167
0.504167
0.529167
0.550000
0.508333
0.533333
0.516667
0.520833
0.529167
0.520833
0.525000
0.516667
0.554167
0.504167
0.520833
0.520833
0.550000
0.508333
0.516667
0.520833
0.550000
0.504167
0.520833
0.516667
0.520833
0.525000
0.520833
0.516667
0.520833
0.550000
0.508333
0.516667
0.520833
0.516667
0.550000
0.504167
0.520833
0.516667
0.550000
0.504167
0.516667
0.525000
0.520833
0.525000
0.520833
0.520833
0.516667
0.525000
0.520833
0.520833
0.516667
0.554167
0.504167
0.516667
0.520833
0.520833
0.520833
0.520833
0.520833
0.512500
0.554167
0.504167
0.516667
0.520833
0.520833
0.520833
0.520833
0.520833
0.525000
0.520833
0.520833
0.520833
0.520833
0.520833
0.520833
0.520833
0.520833
0.554167
0.504167
0.520833
0.520833
0.516667
0.529167
0.520833
0.520833
0.520833
0.525000
0.400000
0.650000
0.504167
0.520833
0.516667
0.520833
0.525000
0.520833
0.520833
0.516667
0.520833
0.520833
0.520833
0.520833
0.516667
0.520833
0.520833
0.520833
0.520833
0.516667
0.516667
0.520833
0.520833
0.516667
0.520833
0.516667
0.525000
0.516667
0.520833
0.516667
0.520833
0.516667
0.520833
0.520833
0.516667
0.516667
0.520833
0.520833
0.520833
0.520833
0.520833
0.516667
0.520833
0.520833
0.520833
0.516667
0.520833
0.520833
0.520833
0.516667
0.516667
0.520833
0.516667
0.520833
0.516667
0.516667
0.520833
0.520833
0.516667
0.516667
0.520833
0.516667
0.520833
0.516667
0.516667
0.520833
0.516667
0.520833
0.520833
0.516667
0.516667
0.520833
0.516667
0.520833
0.516667
0.520833
0.520833
0.520833
0.516667
0.520833
0.520833
0.516667
0.520833
0.516667
0.520833
0.516667
0.516667
0.520833
0.516667
0.520833
0.520833
0.520833
0.520833
0.516667
0.520833
0.516667
0.520833
0.516667
0.525000
0.516667
0.520833
0.516667
0.520833
0.516667
0.520833
0.516667
0.520833
0.520833
0.520833
0.516667
0.520833
0.516667
0.516667
0.516667
0.520833
0.516667
0.520833
0.516667
0.520833
0.516667
0.520833
0.512500
0.520833
0.512500
0.520833
0.520833
0.516667
0.516667
0.520833
0.516667
0.520833
0.516667
0.520833
0.516667
0.516667
0.520833
0.520833
0.516667
0.516667
0.520833
0.520833
0.516667
0.520833
0.516667
0.516667
0.520833
0.516667
0.516667
0.520833
0.516667
0.520833
0.516667
0.520833
0.520833
0.520833
0.516667
0.520833
0.520833
0.516667
0.520833
0.520833
0.516667
0.520833
0.516667
0.516667
0.520833
0.520833
0.516667
0.520833
0.516667
0.520833
0.516667
0.520833
0.516667
0.516667
0.520833
0.520833
0.520833
0.516667
0.516667
0.516667
0.516667
0.520833
0.516667
0.516667
0.520833
0.516667
0.416667
0.641667
0.504167
0.516667
0.516667
0.525000
0.520833
0.520833
0.520833
0.516667
0.516667
0.516667
0.520833
0.520833
0.520833
0.516667
0.516667
0.520833
0.520833
0.520833
0.516667
0.520833
0.516667
0.516667
0.520833
0.404167
0.637500
0.520833
0.520833
0.520833
0.520833
0.520833
0.520833
0.520833
0.520833
0.520833
0.520833
0.520833
0.525000
0.520833
0.520833
0.520833
0.520833
0.520833
0.520833
0.516667
0.520833
0.520833
0.520833
0.516667
0.516667
0.525000
0.520833
0.520833
0.520833
0.520833
0.520833
0.525000
0.520833
0.520833
0.520833
0.516667
0.520833
0.520833
0.520833
0.520833
0.525000
0.520833
0.520833
0.520833
0.516667
0.520833
0.520833
0.525000
0.520833
0.520833
0.520833
0.520833
0.520833
0.520833
0.520833
0.520833
0.520833
0.520833
0.520833
0.520833
0.520833
0.520833
0.516667
0.525000
0.525000
0.520833
0.520833
0.520833
0.520833
0.525000
0.520833
0.525000
0.520833
0.516667
0.525000
0.520833
0.520833
0.525000
0.520833
0.516667
0.525000
0.520833
0.520833
0.520833
0.520833
0.525000
0.520833
0.520833
0.520833
0.520833
0.520833
0.525000
0.520833
0.525000
0.516667
0.525000
