0.566667
0.575000
0.675000
0.454167
0.566667
0.520833
0.625000
0.554167
0.570833
0.570833
0.562500
0.566667
0.566667
0.562500
0.566667
0.575000
0.566667
0.575000
0.562500
0.566667
0.570833
0.566667
0.566667
0.570833
0.570833
0.566667
0.570833
0.570833
0.566667
0.566667
0.575000
0.570833
0.579167
0.575000
0.570833
0.575000
0.587500
0.575000
0.575000
0.587500
0.583333
0.575000
0.591667
0.587500
0.570833
0.587500
0.587500
0.587500
0.579167
0.583333
0.583333
0.583333
0.579167
0.587500
0.583333
0.575000
0.583333
0.583333
0.570833
0.616667
0.925000
0.245833
0.291667
0.870833
0.591667
0.587500
0.362500
0.437500
0.404167
0.591667
0.595833
0.550000
0.270833
0.337500
0.354167
0.862500
0.412500
0.433333
0.337500
0.320833
0.487500
0.320833
0.625000
0.579167
0.450000
0.487500
0.275000
0.504167
0.625000
0.087500
0.479167
0.520833
0.562500
0.583333
0.245833
0.687500
0.258333
0.687500
0.958333
0.466667
0.695833
0.375000
0.691667
0.600000
0.391667
0.895833
0.600000
0.608333
0.595833
0.604167
0.600000
0.595833
0.604167
0.595833
0.595833
0.595833
0.595833
0.608333
0.595833
0.591667
0.600000
0.591667
0.591667
0.600000
0.587500
0.587500
0.595833
0.591667
0.591667
0.595833
0.591667
0.587500
0.600000
0.587500
0.587500
0.591667
0.600000
0.208333
0.425000
0.395833
0.458333
0.904167
0.591667
0.604167
0.608333
0.604167
0.600000
0.612500
0.604167
0.604167
0.604167
0.604167
0.604167
0.375000
0.329167
0.395833
0.704167
0.287500
0.312500
0.500000
0.437500
0.258333
0.604167
0.608333
0.604167
0.600000
0.595833
0.608333
0.600000
0.600000
0.604167
0.608333
0.604167
0.608333
0.608333
0.612500
0.608333
0.600000
0.608333
0.608333
0.604167
0.616667
0.604167
0.604167
0.600000
0.616667
0.608333
0.608333
0.616667
0.687500
0.329167
0.208333
0.225000
0.387500
0.212500
0.404167
0.608333
0.612500
0.612500
0.608333
0.612500
0.612500
0.616667
0.612500
0.612500
0.616667
0.612500
0.616667
0.620833
0.612500
0.612500
0.612500
0.612500
0.612500
0.387500
0.220833
0.354167
0.433333
0.425000
0.616667
0.654167
0.487500
0.670833
0.608333
0.604167
0.608333
0.370833
0.225000
0.687500
0.512500
0.600000
0.600000
0.591667
0.591667
0.366667
0.225000
0.491667
0.345833
0.366667
0.350000
0.370833
0.187500
0.283333
0.604167
0.325000
0.325000
0.554167
0.283333
0.308333
0.300000
0.304167
0.233333
0.670833
0.295833
0.595833
0.616667
0.241667
0.487500
0.470833
0.616667
0.583333
0.666667
0.620833
0.641667
0.637500
0.629167
0.645833
0.637500
0.637500
0.637500
0.637500
0.633333
0.645833
0.641667
0.637500
0.645833
0.637500
0.641667
0.637500
0.641667
0.641667
0.637500
0.633333
0.633333
0.629167
0.629167
0.629167
0.616667
0.625000
0.775000
0.362500
0.720833
0.616667
0.612500
0.616667
0.612500
0.608333
0.612500
0.625000
0.625000
0.625000
0.620833
0.633333
0.633333
0.625000
0.629167
0.625000
0.620833
0.620833
0.620833
0.625000
0.620833
0.612500
0.616667
0.616667
0.608333
0.604167
0.616667
0.604167
0.600000
0.600000
0.604167
0.604167
0.595833
0.600000
0.600000
0.595833
0.591667
0.591667
0.591667
0.587500
0.591667
0.591667
0.583333
0.583333
0.583333
0.591667
0.583333
0.587500
0.587500
0.591667
0.587500
0.587500
0.595833
0.587500
0.587500
0.587500
0.591667
0.587500
0.583333
0.591667
0.583333
0.583333
0.583333
0.587500
0.595833
0.600000
0.595833
0.600000
0.608333
0.604167
0.600000
0.604167
0.604167
0.600000
0.604167
0.595833
0.600000
0.608333
0.604167
0.595833
0.600000
0.595833
0.587500
0.591667
0.595833
0.591667
0.587500
0.591667
0.587500
0.583333
0.587500
0.579167
0.583333
0.579167
0.579167
0.579167
0.583333
0.579167
0.416667
0.579167
0.754167
0.583333
0.579167
0.583333
0.579167
0.583333
0.579167
0.733333
0.100000
0.329167
0.583333
0.604167
0.591667
0.587500
0.425000
0.137500
0.254167
0.204167
0.466667
0.491667
0.354167
0.691667
0.325000
0.241667
0.225000
0.412500
0.645833
0.366667
0.937500
0.500000
0.479167
0.312500
0.350000
0.525000
0.187500
0.358333
0.312500
0.270833
0.700000
0.454167
0.570833
0.575000
0.720833
0.404167
0.600000
0.579167
0.570833
0.570833
0.575000
0.575000
0.570833
0.570833
0.579167
0.566667
0.562500
0.566667
0.575000
0.562500
0.562500
0.754167
0.379167
0.345833
0.312500
0.283333
0.270833
0.450000
0.783333
0.379167
0.541667
0.366667
0.729167
0.579167
0.562500
0.554167
0.554167
0.566667
0.558333
0.554167
0.558333
0.566667
0.554167
0.554167
0.562500
0.558333
0.554167
0.554167
0.566667
0.554167
0.554167
0.554167
0.562500
0.558333
0.554167
0.558333
0.566667
0.558333
0.554167
0.562500
0.575000
0.566667
0.558333
0.575000
0.570833
0.566667
0.566667
0.575000
0.570833
0.566667
0.570833
0.575000
0.570833
0.566667
0.570833
0.570833
0.566667
0.566667
0.579167
0.570833
0.566667
0.566667
0.358333
0.237500
0.266667
0.850000
0.566667
0.579167
0.570833
0.566667
0.570833
0.566667
0.291667
0.275000
0.583333
0.575000
0.575000
0.583333
0.583333
0.587500
0.587500
0.579167
0.450000
0.712500
0.579167
0.295833
0.279167
0.587500
0.579167
0.575000
0.583333
0.583333
0.579167
0.570833
0.583333
0.575000
0.575000
0.575000
0.583333
0.570833
0.570833
0.583333
0.570833
0.570833
0.575000
0.575000
0.575000
0.570833
0.575000
0.583333
0.575000
0.575000
0.579167
0.575000
0.570833
0.583333
0.575000
0.570833
0.579167
0.570833
0.570833
0.575000
0.575000
0.575000
0.566667
0.570833
0.579167
0.570833
0.570833
0.570833
0.575000
0.575000
0.575000
0.570833
0.579167
0.583333
0.575000
0.579167
0.583333
0.587500
0.583333
0.579167
0.587500
0.579167
0.583333
0.583333
0.587500
0.583333
0.579167
0.579167
0.583333
0.579167
0.579167
0.579167
0.583333
0.575000
0.575000
0.575000
0.579167
0.575000
0.570833
0.583333
0.579167
0.570833
0.579167
0.587500
0.575000
0.575000
0.579167
0.575000
0.575000
0.575000
0.579167
0.233333
0.358333
0.583333
0.583333
0.583333
0.587500
0.583333
0.587500
0.591667
0.591667
0.587500
0.587500
0.283333
0.304167
0.591667
0.470833
0.587500
0.725000
0.270833
0.329167
0.608333
0.612500
0.612500
0.612500
0.608333
0.616667
0.608333
0.608333
0.612500
0.604167
0.600000
0.604167
0.604167
0.595833
0.600000
0.608333
0.604167
0.600000
0.604167
0.616667
0.612500
0.612500
0.612500
0.620833
0.616667
0.254167
0.379167
0.616667
0.620833
0.616667
0.633333
0.616667
0.616667
0.625000
0.616667
0.616667
0.620833
0.616667
0.612500
0.612500
0.612500
0.608333
0.612500
0.608333
0.604167
0.604167
0.604167
0.600000
0.608333
0.600000
0.595833
0.595833
0.604167
0.595833
0.591667
0.595833
0.595833
0.591667
0.591667
0.595833
0.591667
0.591667
0.591667
0.595833
0.591667
0.587500
0.587500
0.595833
0.587500
0.583333
0.583333
0.587500
0.591667
0.583333
0.587500
0.587500
0.591667
0.591667
0.587500
0.587500
0.591667
0.587500
0.591667
0.583333
0.591667
0.591667
0.587500
0.600000
0.600000
0.591667
0.591667
0.604167
0.600000
0.600000
0.600000
0.600000
0.604167
0.604167
0.604167
0.612500
0.616667
0.608333
0.608333
0.608333
0.620833
0.612500
0.612500
0.612500
0.616667
0.616667
0.612500
0.620833
0.629167
0.625000
0.629167
0.637500
0.629167
0.629167
0.633333
0.633333
0.629167
0.629167
0.633333
0.629167
0.625000
0.620833
0.629167
0.616667
0.616667
0.616667
0.608333
0.608333
0.612500
0.608333
0.608333
0.604167
0.612500
0.608333
0.604167
0.608333
0.604167
0.600000
0.612500
0.608333
0.295833
0.308333
0.604167
0.604167
0.608333
0.604167
0.604167
0.362500
0.245833
0.825000
0.379167
0.612500
0.395833
0.225000
0.591667
0.387500
0.225000
0.250000
0.958333
0.608333
0.604167
0.600000
0.600000
0.604167
0.600000
0.591667
0.604167
0.600000
0.591667
0.275000
0.916667
0.587500
0.600000
0.337500
0.250000
0.220833
0.370833
0.587500
0.237500
0.354167
0.583333
0.595833
0.591667
0.587500
0.595833
0.254167
0.808333
0.695833
0.350000
0.245833
0.445833
0.329167
0.237500
0.366667
0.425000
0.416667
0.591667
0.600000
0.708333
0.587500
0.595833
0.337500
0.254167
0.591667
0.208333
0.458333
0.525000
0.595833
0.595833
0.595833
0.600000
0.600000
0.595833
0.595833
0.608333
0.604167
0.604167
0.604167
0.595833
0.612500
0.604167
0.595833
0.595833
0.608333
0.612500
0.604167
0.600000
0.600000
0.612500
0.604167
0.216667
0.383333
0.604167
0.604167
0.600000
0.600000
0.600000
0.600000
0.595833
0.595833
0.600000
0.595833
0.600000
0.583333
0.595833
0.591667
0.595833
0.591667
0.595833
0.595833
0.583333
0.595833
0.600000
0.591667
0.579167
0.591667
0.600000
0.591667
0.583333
0.591667
0.495833
0.687500
0.587500
0.587500
0.595833
0.591667
0.591667
0.591667
0.600000
0.591667
0.591667
0.600000
0.595833
0.595833
0.595833
0.604167
0.595833
0.587500
0.600000
0.591667
0.583333
0.591667
0.595833
0.591667
0.587500
0.591667
0.587500
0.583333
0.587500
0.595833
0.579167
0.587500
0.600000
0.579167
0.583333
0.595833
0.591667
0.587500
0.591667
0.591667
0.583333
0.591667
0.591667
0.583333
0.591667
0.587500
0.583333
0.591667
0.591667
0.591667
0.587500
0.595833
0.587500
0.366667
0.220833
0.587500
0.595833
0.587500
0.587500
0.587500
0.591667
0.587500
0.591667
0.591667
0.587500
0.591667
0.587500
0.595833
0.587500
0.587500
0.591667
0.595833
0.587500
0.587500
0.587500
0.595833
0.587500
0.587500
0.595833
0.662500
0.562500
0.545833
0.616667
0.562500
0.658333
0.679167
0.558333
0.616667
0.325000
0.291667
0.608333
0.275000
0.970833
0.400000
0.220833
0.620833
0.620833
0.612500
0.608333
0.612500
0.604167
0.600000
0.600000
0.608333
0.595833
0.587500
0.595833
0.595833
0.591667
0.579167
0.591667
0.579167
0.579167
0.583333
0.583333
0.583333
0.575000
0.575000
0.587500
0.583333
0.570833
0.579167
0.583333
0.575000
0.575000
0.579167
0.579167
0.575000
0.579167
0.575000
0.579167
0.570833
0.579167
0.583333
0.575000
0.579167
0.579167
0.579167
0.587500
0.579167
0.304167
0.270833
0.583333
0.483333
0.679167
0.575000
0.587500
0.579167
0.579167
0.579167
0.579167
0.583333
0.579167
0.579167
0.579167
0.591667
0.579167
0.579167
0.579167
0.579167
0.591667
0.570833
0.583333
0.579167
0.583333
0.587500
0.579167
0.575000
0.583333
0.583333
0.233333
0.345833
0.312500
0.275000
0.220833
0.370833
0.433333
0.154167
0.591667
0.595833
0.595833
0.595833
0.595833
0.587500
0.595833
0.587500
0.587500
0.587500
0.595833
0.587500
0.587500
0.583333
0.591667
0.583333
0.583333
0.583333
0.591667
0.583333
0.583333
0.587500
0.579167
0.583333
0.579167
0.587500
0.579167
0.575000
0.583333
0.575000
0.579167
0.575000
0.583333
