0.566667
0.566667
0.566667
0.554167
0.558333
0.566667
0.570833
0.562500
0.562500
0.562500
0.570833
0.562500
0.562500
0.566667
0.570833
0.562500
0.562500
0.562500
0.566667
0.570833
0.558333
0.562500
0.566667
0.562500
0.562500
0.562500
0.566667
0.562500
0.562500
0.562500
0.570833
0.558333
0.562500
0.566667
0.566667
0.562500
0.558333
0.566667
0.562500
0.558333
0.562500
0.566667
0.558333
0.562500
0.558333
0.566667
0.566667
0.558333
0.562500
0.562500
0.562500
0.558333
0.562500
0.570833
0.562500
0.562500
0.562500
0.570833
0.570833
0.562500
0.562500
0.566667
0.570833
0.566667
0.566667
0.566667
0.566667
0.570833
0.562500
0.566667
0.566667
0.570833
0.562500
0.562500
0.566667
0.570833
0.566667
0.562500
0.566667
0.566667
0.570833
0.575000
0.450000
0.395833
0.691667
0.608333
0.595833
0.579167
0.587500
0.570833
0.575000
0.583333
0.570833
0.570833
0.570833
0.579167
0.570833
0.562500
0.570833
0.579167
0.566667
0.562500
0.570833
0.575000
0.566667
0.562500
0.570833
0.566667
0.562500
0.566667
0.570833
0.562500
0.562500
0.562500
0.570833
0.562500
0.558333
0.566667
0.570833
0.558333
0.558333
0.558333
0.562500
0.566667
0.554167
0.562500
0.558333
0.566667
0.566667
0.566667
0.570833
0.570833
0.562500
0.566667
0.575000
0.562500
0.566667
0.570833
0.570833
0.566667
0.562500
0.566667
0.562500
0.558333
0.562500
0.570833
0.562500
0.562500
0.562500
0.562500
0.570833
0.558333
0.558333
0.566667
0.566667
0.562500
0.558333
0.562500
0.570833
0.558333
0.562500
0.558333
0.566667
0.558333
0.558333
0.562500
0.558333
0.570833
0.554167
0.562500
0.216667
0.341667
0.566667
0.554167
0.558333
0.566667
0.554167
0.554167
0.558333
0.562500
0.554167
0.558333
0.558333
0.562500
0.554167
0.554167
0.558333
0.566667
0.550000
0.558333
0.558333
0.562500
0.554167
0.554167
0.558333
0.562500
0.558333
0.554167
0.558333
0.566667
0.554167
0.554167
0.558333
0.562500
0.558333
0.554167
0.554167
0.562500
0.562500
0.558333
0.554167
0.562500
0.566667
0.554167
0.558333
0.562500
0.562500
0.562500
0.554167
0.562500
0.562500
0.558333
0.558333
0.566667
0.558333
0.558333
0.566667
0.562500
0.345833
0.220833
0.558333
0.562500
0.562500
0.566667
0.570833
0.654167
0.462500
0.562500
0.579167
0.570833
0.570833
0.570833
0.575000
0.570833
0.570833
0.575000
0.566667
0.562500
0.570833
0.575000
0.562500
0.566667
0.566667
0.562500
0.562500
0.566667
0.570833
0.562500
0.562500
0.566667
0.562500
0.558333
0.562500
0.562500
0.558333
0.558333
0.450000
0.641667
0.566667
0.562500
0.570833
0.495833
0.387500
0.237500
0.583333
0.279167
0.291667
0.583333
0.487500
0.654167
0.583333
0.575000
0.579167
0.579167
0.575000
0.570833
0.575000
0.579167
0.570833
0.562500
0.575000
0.575000
0.566667
0.562500
0.566667
0.570833
0.562500
0.558333
0.566667
0.566667
0.558333
0.558333
0.562500
0.566667
0.558333
0.558333
0.562500
0.558333
0.554167
0.558333
0.566667
0.554167
0.554167
0.558333
0.562500
0.554167
0.558333
0.558333
0.562500
0.558333
0.554167
0.562500
0.554167
0.554167
0.558333
0.562500
0.554167
0.554167
0.562500
0.554167
0.550000
0.562500
0.554167
0.554167
0.554167
0.562500
0.554167
0.550000
0.558333
0.562500
0.554167
0.554167
0.562500
0.554167
0.554167
0.562500
0.554167
0.550000
0.562500
0.554167
0.554167
0.558333
0.562500
0.554167
0.558333
0.562500
0.554167
0.554167
0.558333
0.562500
0.558333
0.554167
0.625000
0.500000
0.554167
0.562500
0.562500
0.558333
0.566667
0.570833
0.566667
0.566667
0.570833
0.566667
0.566667
0.570833
0.575000
0.566667
0.562500
0.570833
0.570833
0.566667
0.562500
0.562500
0.575000
0.558333
0.562500
0.566667
0.566667
0.562500
0.558333
0.562500
0.570833
0.558333
0.562500
0.558333
0.570833
0.558333
0.558333
0.562500
0.566667
0.562500
0.558333
0.562500
0.566667
0.558333
0.558333
0.562500
0.566667
0.558333
0.554167
0.562500
0.554167
0.554167
0.558333
0.566667
0.554167
0.554167
0.562500
0.566667
0.554167
0.558333
0.562500
0.566667
0.558333
0.558333
0.562500
0.566667
0.554167
0.558333
0.558333
0.566667
0.554167
0.554167
0.562500
0.562500
0.554167
0.558333
0.558333
0.554167
0.558333
0.562500
0.558333
0.554167
0.562500
0.566667
0.554167
0.558333
0.558333
0.558333
0.554167
0.558333
0.562500
0.558333
0.554167
0.554167
0.566667
0.554167
0.554167
0.558333
0.566667
0.558333
0.558333
0.554167
0.558333
0.562500
0.562500
0.558333
0.558333
0.562500
0.562500
0.554167
0.558333
0.562500
0.566667
0.554167
0.558333
0.562500
0.566667
0.554167
0.554167
0.562500
0.566667
0.558333
0.558333
0.558333
0.562500
0.558333
0.558333
0.558333
0.562500
0.566667
0.554167
0.558333
0.562500
0.558333
0.554167
0.558333
0.562500
0.562500
0.562500
0.558333
0.562500
0.562500
0.562500
0.558333
0.562500
0.566667
0.558333
0.558333
0.562500
0.566667
0.558333
0.562500
0.558333
0.566667
0.562500
0.562500
0.562500
0.566667
0.570833
0.562500
0.562500
0.566667
0.570833
0.562500
0.562500
0.566667
0.445833
0.683333
0.562500
0.562500
0.570833
0.562500
0.562500
0.562500
0.566667
0.562500
0.562500
0.562500
0.570833
0.562500
0.562500
0.562500
0.566667
0.570833
0.558333
0.562500
0.562500
0.570833
0.558333
0.562500
0.558333
0.566667
0.570833
0.558333
0.562500
0.562500
0.566667
0.558333
0.562500
0.558333
0.566667
0.566667
0.562500
0.558333
0.562500
0.562500
0.570833
0.558333
0.562500
0.558333
0.558333
0.566667
0.566667
0.562500
0.562500
0.562500
0.570833
0.566667
0.562500
0.562500
0.566667
0.570833
0.562500
0.566667
0.562500
0.575000
0.570833
0.566667
0.566667
0.566667
0.566667
0.570833
0.566667
0.566667
0.566667
0.570833
0.566667
0.562500
0.566667
0.570833
0.566667
0.562500
0.566667
0.566667
0.570833
0.562500
0.562500
0.562500
0.570833
0.570833
0.562500
0.562500
0.562500
0.570833
0.562500
0.562500
0.562500
0.566667
0.566667
0.562500
0.562500
0.566667
0.570833
0.562500
0.566667
0.562500
0.566667
0.570833
0.562500
0.562500
0.566667
0.570833
0.570833
0.562500
0.566667
0.562500
0.566667
0.570833
0.570833
0.562500
0.566667
0.562500
0.566667
0.558333
0.562500
0.562500
0.562500
0.570833
0.558333
0.562500
0.562500
0.566667
0.562500
0.558333
0.562500
0.562500
0.566667
0.558333
0.562500
0.566667
0.566667
0.562500
0.558333
0.562500
0.566667
0.570833
0.558333
0.562500
0.562500
0.566667
0.570833
0.562500
0.562500
0.562500
0.566667
0.566667
0.566667
0.562500
0.558333
0.566667
0.566667
0.570833
0.562500
0.558333
0.562500
0.566667
0.566667
0.562500
0.562500
0.562500
0.562500
0.566667
0.570833
0.275000
0.287500
0.562500
0.562500
0.570833
0.562500
0.562500
0.562500
0.566667
0.566667
0.575000
0.562500
0.562500
0.566667
0.566667
0.575000
0.562500
0.562500
0.566667
0.570833
0.570833
0.562500
0.566667
0.562500
0.570833
0.566667
0.566667
0.558333
0.566667
0.570833
0.562500
0.562500
0.566667
0.570833
0.558333
0.566667
0.570833
0.558333
0.562500
0.570833
0.570833
0.562500
0.562500
0.570833
0.570833
0.562500
0.562500
0.566667
0.570833
0.562500
0.562500
0.566667
0.570833
0.562500
0.558333
0.566667
0.570833
0.562500
0.562500
0.566667
0.570833
0.562500
0.562500
0.566667
0.570833
0.562500
0.562500
0.566667
0.570833
0.562500
0.566667
0.562500
0.570833
0.562500
0.562500
0.570833
0.562500
0.562500
0.566667
0.570833
0.562500
0.562500
0.562500
0.570833
0.570833
0.566667
0.562500
0.575000
0.562500
0.566667
0.566667
0.562500
0.566667
0.570833
0.562500
0.566667
0.562500
0.566667
0.575000
0.562500
0.566667
0.208333
0.354167
0.562500
0.562500
0.566667
0.558333
0.562500
0.566667
0.562500
0.558333
0.558333
0.562500
0.566667
0.558333
0.558333
0.562500
0.562500
0.558333
0.562500
0.570833
0.562500
0.558333
0.562500
0.570833
0.558333
0.558333
0.562500
0.570833
0.562500
0.558333
0.562500
0.570833
0.558333
0.558333
0.558333
0.566667
0.566667
0.562500
0.250000
0.308333
0.562500
0.566667
0.562500
0.554167
0.266667
0.295833
0.566667
0.566667
0.558333
0.554167
0.562500
0.320833
0.245833
0.562500
0.562500
0.554167
0.566667
0.570833
0.554167
0.558333
1.133333
0.562500
0.566667
0.558333
0.554167
0.558333
0.562500
0.566667
0.562500
0.566667
0.554167
0.566667
0.566667
0.562500
0.558333
0.566667
0.570833
0.562500
0.562500
0.566667
0.570833
0.562500
0.566667
0.562500
0.575000
0.562500
0.245833
0.316667
0.566667
0.570833
0.562500
0.562500
0.566667
0.566667
0.566667
0.566667
0.562500
0.566667
0.570833
0.562500
0.562500
0.566667
0.575000
0.562500
0.558333
0.566667
0.570833
0.562500
0.562500
0.566667
0.566667
0.566667
0.558333
0.566667
0.575000
0.562500
0.562500
0.566667
0.570833
0.562500
0.562500
0.566667
0.570833
0.562500
0.558333
0.570833
0.570833
0.562500
0.558333
0.566667
0.570833
0.562500
0.566667
0.566667
0.570833
0.566667
0.562500
0.566667
0.570833
0.566667
0.562500
0.562500
0.566667
0.570833
0.562500
0.562500
0.566667
0.570833
0.562500
0.562500
0.562500
0.570833
0.566667
0.558333
0.566667
0.566667
0.562500
0.562500
0.566667
0.566667
0.570833
0.562500
0.562500
0.566667
0.566667
0.566667
0.562500
0.566667
0.570833
0.570833
0.566667
0.562500
0.570833
0.570833
0.566667
0.566667
0.566667
0.570833
0.570833
0.566667
0.566667
0.566667
0.570833
0.570833
0.566667
0.566667
0.570833
0.570833
0.562500
0.566667
0.570833
0.570833
0.562500
0.566667
0.566667
0.566667
0.575000
0.566667
0.562500
0.570833
0.570833
0.566667
0.566667
0.562500
0.570833
0.570833
0.295833
0.266667
0.570833
0.579167
0.575000
0.583333
0.579167
0.583333
0.579167
0.579167
0.587500
0.587500
0.587500
0.583333
0.587500
0.579167
0.587500
0.579167
0.575000
0.579167
0.583333
0.575000
0.570833
0.570833
0.579167
0.575000
0.570833
0.566667
0.570833
0.579167
0.566667
0.566667
0.570833
0.570833
0.566667
0.562500
0.562500
0.566667
0.570833
0.562500
0.558333
0.566667
0.566667
0.562500
0.558333
0.562500
0.562500
0.566667
0.558333
0.558333
0.558333
0.562500
0.570833
0.558333
0.558333
0.562500
0.566667
0.562500
0.558333
0.562500
0.558333
0.566667
0.558333
0.558333
0.562500
0.566667
0.558333
0.558333
0.558333
0.562500
0.566667
0.558333
0.558333
0.562500
0.566667
0.558333
0.558333
0.558333
0.562500
0.570833
0.558333
0.562500
0.562500
0.570833
0.562500
0.562500
0.562500
0.566667
0.566667
0.562500
0.562500
0.562500
0.566667
0.566667
0.562500
0.562500
0.566667
0.566667
0.562500
0.562500
0.562500
0.570833
0.558333
0.562500
0.562500
0.566667
0.570833
0.558333
0.562500
0.566667
0.570833
0.562500
0.562500
0.566667
