0.554167
0.554167
0.562500
0.558333
0.558333
0.550000
0.558333
0.562500
0.554167
0.554167
0.550000
0.558333
0.558333
0.550000
0.550000
0.558333
0.566667
0.554167
0.550000
0.554167
0.566667
0.554167
0.550000
0.554167
0.566667
0.554167
0.550000
0.550000
0.562500
0.554167
0.550000
0.554167
0.562500
0.554167
0.550000
0.554167
0.558333
0.554167
0.550000
0.554167
0.558333
0.550000
0.550000
0.554167
0.554167
0.545833
0.554167
0.550000
0.558333
0.550000
0.545833
0.554167
0.550000
0.545833
0.550000
0.558333
0.550000
0.550000
0.554167
0.554167
0.554167
0.545833
0.554167
0.558333
0.550000
0.545833
0.554167
0.554167
0.550000
0.550000
0.554167
0.554167
0.550000
0.550000
0.554167
0.554167
0.545833
0.550000
0.554167
0.562500
0.550000
0.550000
0.550000
0.562500
0.550000
0.550000
0.550000
0.562500
0.550000
0.554167
0.550000
0.562500
0.554167
0.545833
0.554167
0.562500
0.554167
0.545833
0.558333
0.550000
0.550000
0.554167
0.554167
0.554167
0.545833
0.554167
0.558333
0.550000
0.545833
0.550000
0.558333
0.550000
0.545833
0.554167
0.558333
0.550000
0.545833
0.554167
0.558333
0.550000
0.545833
0.550000
0.562500
0.550000
0.545833
0.550000
0.558333
0.550000
0.545833
0.550000
0.558333
0.550000
0.545833
0.545833
0.554167
0.550000
0.545833
0.545833
0.554167
0.550000
0.545833
0.545833
0.558333
0.550000
0.545833
0.550000
0.550000
0.554167
0.550000
0.545833
0.550000
0.558333
0.558333
0.545833
0.550000
0.562500
0.550000
0.550000
0.554167
0.554167
0.554167
0.554167
0.554167
0.558333
0.558333
0.550000
0.554167
0.550000
0.558333
0.562500
0.550000
0.550000
0.554167
0.562500
0.550000
0.554167
0.554167
0.558333
0.554167
0.554167
0.554167
0.558333
0.554167
0.554167
0.550000
0.558333
0.562500
0.550000
0.550000
0.554167
0.558333
0.550000
0.550000
0.554167
0.550000
0.550000
0.550000
0.550000
0.554167
0.550000
0.550000
0.558333
0.550000
0.545833
0.550000
0.554167
0.554167
0.550000
0.550000
0.558333
0.550000
0.550000
0.550000
0.554167
0.558333
0.545833
0.545833
0.554167
0.554167
0.550000
0.545833
0.550000
0.554167
0.545833
0.545833
0.550000
0.554167
0.545833
0.550000
0.541667
0.550000
0.554167
0.545833
0.541667
0.554167
0.550000
0.545833
0.545833
0.554167
0.545833
0.545833
0.550000
0.554167
0.545833
0.545833
0.545833
0.558333
0.545833
0.545833
0.545833
0.554167
0.545833
0.545833
0.545833
0.554167
0.554167
0.545833
0.545833
0.554167
0.550000
0.545833
0.550000
0.554167
0.550000
0.545833
0.550000
0.550000
0.550000
0.550000
0.545833
0.554167
0.558333
0.550000
0.550000
0.554167
0.554167
0.554167
0.554167
0.554167
0.558333
0.558333
0.554167
0.550000
0.558333
0.558333
0.554167
0.554167
0.558333
0.562500
0.554167
0.554167
0.554167
0.562500
0.558333
0.550000
0.554167
0.554167
0.558333
0.554167
0.550000
0.550000
0.554167
0.558333
0.550000
0.550000
0.550000
0.554167
0.550000
0.545833
0.545833
0.558333
0.550000
0.545833
0.545833
0.550000
0.562500
0.545833
0.541667
0.550000
0.558333
0.545833
0.541667
0.545833
0.554167
0.545833
0.541667
0.541667
0.554167
0.541667
0.545833
0.541667
0.550000
0.545833
0.541667
0.541667
0.550000
0.545833
0.541667
0.545833
0.545833
0.541667
0.541667
0.545833
0.545833
0.545833
0.541667
0.541667
0.541667
0.545833
0.554167
0.541667
0.541667
0.545833
0.545833
0.554167
0.545833
0.545833
0.550000
0.554167
0.550000
0.550000
0.545833
0.550000
0.562500
0.550000
0.545833
0.550000
0.558333
0.545833
0.550000
0.545833
0.550000
0.558333
0.550000
0.550000
0.545833
0.550000
0.558333
0.545833
0.545833
0.550000
0.554167
0.550000
0.550000
0.545833
0.554167
0.558333
0.550000
0.545833
0.554167
0.554167
0.550000
0.550000
0.550000
0.550000
0.554167
0.554167
0.550000
0.550000
0.554167
0.558333
0.554167
0.550000
0.554167
0.558333
0.554167
0.550000
0.550000
0.554167
0.558333
0.554167
0.550000
0.558333
0.562500
0.554167
0.554167
0.554167
0.566667
0.554167
0.554167
0.554167
0.562500
0.558333
0.554167
0.554167
0.558333
0.558333
0.554167
0.550000
0.550000
0.558333
0.558333
0.554167
0.550000
0.550000
0.558333
0.554167
0.550000
0.545833
0.554167
0.558333
0.550000
0.550000
0.554167
0.558333
0.550000
0.550000
0.554167
0.562500
0.550000
0.550000
0.550000
0.558333
0.554167
0.550000
0.550000
0.554167
0.562500
0.550000
0.550000
0.554167
0.562500
0.550000
0.550000
0.550000
0.562500
0.550000
0.550000
0.550000
0.554167
0.558333
0.554167
1.100000
0.550000
0.604167
0.495833
0.550000
0.558333
0.554167
0.550000
0.545833
0.554167
0.558333
0.550000
0.550000
0.545833
0.558333
0.554167
0.545833
0.550000
0.562500
0.550000
0.545833
0.554167
0.554167
0.550000
0.550000
0.554167
0.550000
0.545833
0.550000
0.554167
0.545833
0.541667
0.550000
0.554167
0.545833
0.541667
0.545833
0.554167
0.545833
0.541667
0.545833
0.554167
0.545833
0.541667
0.545833
0.550000
0.545833
0.541667
0.545833
0.550000
0.550000
0.545833
0.541667
0.550000
0.554167
0.545833
0.541667
0.545833
0.558333
0.545833
0.545833
0.545833
0.558333
0.545833
0.541667
0.545833
0.558333
0.541667
0.545833
0.545833
0.550000
0.550000
0.545833
0.545833
0.554167
0.550000
0.545833
0.550000
0.554167
0.550000
0.550000
0.550000
0.554167
0.554167
0.545833
0.550000
0.558333
0.550000
0.550000
0.550000
0.554167
0.558333
0.550000
0.550000
0.554167
0.554167
0.550000
0.550000
0.550000
0.562500
0.550000
0.545833
0.550000
0.558333
0.545833
0.545833
0.550000
0.558333
0.550000
0.550000
0.550000
0.554167
0.550000
0.550000
0.550000
0.554167
0.558333
0.550000
0.545833
0.550000
0.558333
0.554167
0.345833
0.750000
0.550000
0.545833
0.554167
0.558333
0.554167
0.545833
0.550000
0.562500
0.550000
0.545833
0.550000
0.558333
0.550000
0.545833
0.554167
0.558333
0.550000
0.550000
0.558333
0.554167
0.550000
0.554167
0.562500
0.562500
0.562500
0.566667
0.566667
0.575000
0.587500
0.575000
0.579167
0.583333
0.583333
0.587500
0.587500
0.583333
0.587500
0.595833
0.587500
0.587500
0.591667
0.587500
0.583333
0.591667
0.587500
0.583333
0.591667
0.587500
0.587500
0.587500
0.583333
0.587500
0.579167
0.575000
0.579167
0.570833
0.570833
0.575000
0.570833
0.562500
0.575000
0.570833
0.575000
0.575000
0.579167
0.575000
0.570833
0.579167
0.579167
0.575000
0.579167
0.587500
0.587500
0.583333
0.579167
0.579167
0.587500
0.575000
0.579167
0.575000
0.583333
0.579167
0.575000
0.404167
0.220833
0.791667
0.916667
0.583333
0.595833
0.591667
0.583333
0.591667
0.587500
0.587500
0.583333
0.579167
0.575000
0.579167
0.579167
0.566667
0.566667
0.570833
0.562500
0.558333
0.562500
0.566667
0.562500
0.550000
0.558333
0.558333
0.550000
0.545833
0.554167
0.550000
0.545833
0.545833
0.550000
0.545833
0.545833
0.545833
0.545833
0.541667
0.545833
0.545833
0.550000
0.541667
0.541667
0.545833
0.550000
0.545833
0.541667
0.537500
0.545833
0.554167
0.541667
0.545833
0.545833
0.550000
0.545833
0.541667
0.545833
0.554167
0.545833
0.545833
0.545833
0.550000
0.554167
0.545833
0.545833
0.550000
0.554167
0.545833
0.545833
0.550000
0.520833
0.583333
0.554167
0.554167
0.558333
0.554167
0.550000
0.558333
0.562500
0.558333
0.554167
0.554167
0.562500
0.558333
0.554167
0.558333
0.558333
0.566667
0.554167
0.554167
0.558333
0.562500
0.554167
0.554167
0.558333
0.558333
0.554167
0.554167
0.554167
0.554167
0.562500
0.550000
0.554167
0.554167
0.562500
0.550000
0.554167
0.554167
0.558333
0.554167
0.550000
0.550000
0.554167
0.562500
0.550000
0.545833
0.554167
0.554167
0.550000
0.550000
0.554167
0.554167
0.550000
0.550000
0.554167
0.558333
0.550000
0.550000
0.554167
0.554167
0.554167
0.550000
0.545833
0.554167
0.558333
0.550000
0.550000
0.550000
0.558333
0.550000
0.545833
0.554167
0.554167
0.554167
0.550000
0.554167
0.558333
0.550000
0.550000
0.554167
0.554167
0.550000
0.550000
0.554167
0.558333
0.550000
0.550000
0.550000
0.562500
0.550000
0.550000
0.550000
0.562500
0.550000
0.550000
0.554167
0.558333
0.550000
0.550000
0.554167
0.558333
0.550000
0.550000
0.550000
0.558333
0.545833
0.550000
0.550000
0.554167
0.541667
0.554167
0.545833
0.554167
0.545833
0.545833
0.550000
0.550000
0.550000
0.545833
0.545833
0.554167
0.545833
0.550000
0.545833
0.550000
0.554167
0.550000
0.541667
0.554167
0.554167
0.550000
0.545833
0.550000
0.554167
0.545833
0.545833
0.550000
0.554167
0.550000
0.545833
0.545833
0.554167
0.545833
0.545833
0.550000
0.554167
0.545833
0.545833
0.550000
0.545833
0.554167
0.550000
0.545833
0.550000
0.550000
0.554167
0.550000
0.545833
0.550000
0.550000
0.545833
0.550000
0.550000
0.558333
0.550000
0.550000
0.554167
0.558333
0.550000
0.550000
0.550000
0.558333
0.550000
0.545833
0.550000
0.558333
0.550000
0.545833
0.550000
0.554167
0.550000
0.545833
0.550000
0.550000
0.558333
0.550000
0.545833
0.550000
0.554167
0.558333
0.554167
0.545833
0.554167
0.554167
0.550000
0.550000
0.550000
0.554167
0.550000
0.545833
0.554167
0.550000
0.550000
0.550000
0.558333
0.550000
0.554167
0.550000
0.562500
0.550000
0.554167
0.554167
0.558333
0.554167
0.550000
0.558333
0.558333
0.191667
0.366667
0.545833
0.554167
0.550000
0.554167
0.554167
0.554167
0.554167
0.550000
0.554167
0.558333
0.550000
0.550000
0.554167
0.550000
0.308333
0.800000
0.554167
0.562500
0.550000
0.554167
0.550000
0.562500
0.254167
0.850000
0.554167
0.554167
0.554167
0.545833
0.558333
0.550000
0.550000
0.550000
0.558333
0.550000
0.545833
0.550000
0.420833
0.683333
0.550000
0.550000
0.558333
0.545833
0.550000
0.545833
0.562500
0.541667
0.545833
0.429167
0.670833
1.095833
0.541667
0.545833
0.558333
0.545833
0.545833
0.545833
0.554167
0.545833
0.541667
0.554167
0.550000
0.550000
0.550000
0.545833
0.545833
0.554167
0.550000
0.545833
0.550000
0.550000
0.550000
0.545833
0.545833
0.554167
0.550000
0.545833
0.545833
0.550000
0.554167
0.550000
0.541667
0.554167
0.545833
0.558333
0.541667
0.545833
0.554167
0.550000
0.554167
0.254167
0.295833
0.554167
0.545833
0.554167
0.558333
0.550000
0.550000
0.550000
0.558333
0.545833
0.550000
0.550000
0.558333
0.550000
0.545833
0.550000
0.554167
0.545833
0.650000
0.458333
0.529167
0.566667
0.725000
0.370833
0.554167
0.550000
0.545833
0.550000
0.550000
0.550000
0.550000
0.550000
0.550000
0.554167
0.608333
0.500000
0.554167
0.308333
0.250000
0.554167
0.558333
0.570833
0.558333
0.558333
0.562500
0.570833
0.562500
0.558333
0.566667
0.558333
0.558333
0.562500
0.566667
0.558333
0.554167
0.558333
0.566667
0.379167
0.725000
0.558333
0.562500
0.554167
0.550000
0.558333
0.562500
0.550000
0.550000
0.554167
0.554167
