0.554167
0.441667
0.654167
0.558333
0.550000
0.541667
0.550000
0.550000
0.533333
0.545833
0.541667
0.545833
0.537500
0.541667
0.537500
0.545833
0.541667
0.545833
0.537500
0.545833
0.541667
0.541667
0.550000
0.541667
0.541667
0.550000
0.545833
0.550000
0.558333
0.541667
0.558333
0.541667
0.550000
0.550000
0.550000
0.550000
0.554167
0.541667
0.550000
0.545833
0.541667
0.550000
0.541667
0.541667
0.550000
0.537500
0.545833
0.545833
0.541667
0.550000
0.541667
0.550000
0.550000
0.550000
0.541667
0.554167
0.550000
0.545833
0.558333
0.550000
0.554167
0.554167
0.554167
0.554167
0.558333
0.554167
0.562500
0.554167
0.558333
0.562500
0.554167
0.562500
0.550000
0.558333
0.550000
0.558333
0.550000
0.550000
0.554167
0.545833
0.550000
0.545833
0.550000
0.550000
0.550000
0.545833
0.550000
0.541667
0.550000
0.541667
0.541667
0.554167
0.550000
0.541667
0.366667
0.645833
0.570833
0.558333
0.566667
0.562500
0.558333
0.558333
0.558333
0.554167
0.554167
0.545833
0.554167
0.541667
0.550000
0.554167
0.541667
0.545833
0.554167
0.537500
0.558333
0.545833
0.545833
0.550000
0.541667
0.550000
0.550000
0.550000
0.545833
0.558333
0.550000
0.554167
0.550000
0.554167
0.558333
0.550000
0.562500
0.554167
0.562500
0.554167
0.566667
0.554167
0.558333
0.558333
0.554167
0.429167
0.683333
0.562500
0.566667
0.554167
0.558333
0.558333
0.554167
0.558333
0.554167
0.554167
0.558333
0.554167
0.558333
0.550000
0.562500
0.545833
0.558333
0.550000
0.550000
0.554167
0.554167
0.541667
0.550000
0.541667
0.545833
0.550000
0.550000
0.545833
0.637500
0.454167
0.325000
0.766667
0.541667
0.550000
0.537500
0.545833
0.550000
0.550000
0.545833
0.550000
0.541667
0.562500
0.537500
0.537500
0.554167
0.558333
0.545833
0.554167
0.550000
0.545833
0.558333
0.550000
0.541667
0.550000
0.550000
0.545833
0.545833
0.550000
0.545833
0.541667
0.554167
0.545833
0.550000
0.550000
0.541667
0.562500
0.537500
0.554167
0.562500
0.420833
0.662500
0.566667
0.545833
0.562500
0.545833
0.554167
0.541667
0.545833
0.554167
0.545833
0.545833
0.554167
0.550000
0.550000
0.550000
0.550000
0.554167
0.554167
0.558333
0.554167
0.558333
0.554167
0.558333
0.558333
0.558333
0.558333
0.566667
0.558333
0.558333
0.562500
0.554167
0.562500
0.562500
0.554167
0.566667
0.554167
0.562500
0.554167
0.558333
0.550000
0.562500
0.545833
0.558333
0.554167
0.550000
0.558333
0.554167
0.558333
0.554167
0.558333
0.554167
0.562500
0.554167
0.566667
0.554167
0.562500
0.558333
0.554167
0.558333
0.562500
0.558333
0.562500
0.566667
0.558333
0.562500
0.566667
0.558333
0.562500
0.562500
0.562500
0.562500
0.570833
0.558333
0.562500
0.566667
0.558333
0.566667
0.558333
0.562500
0.554167
0.566667
0.562500
0.558333
0.562500
0.558333
0.558333
0.562500
0.558333
0.554167
0.558333
0.562500
0.545833
0.558333
0.554167
0.545833
0.554167
0.550000
0.545833
0.554167
0.545833
0.554167
0.545833
0.554167
0.550000
0.550000
0.545833
0.554167
0.550000
0.550000
0.554167
0.545833
0.554167
0.554167
0.545833
0.562500
0.550000
0.545833
0.550000
0.558333
0.545833
0.558333
0.537500
0.558333
0.554167
0.291667
0.800000
0.550000
0.550000
0.545833
0.550000
0.545833
0.550000
0.554167
0.545833
0.550000
0.545833
0.554167
0.550000
0.550000
0.545833
0.554167
0.545833
0.550000
0.545833
0.550000
0.545833
0.550000
0.554167
0.554167
0.554167
0.550000
0.554167
0.550000
0.558333
0.550000
0.554167
0.550000
0.550000
0.554167
0.550000
0.541667
0.566667
0.550000
0.554167
0.545833
0.545833
0.550000
0.550000
0.541667
0.550000
0.554167
0.545833
0.554167
0.545833
0.558333
0.541667
0.550000
0.545833
0.554167
0.541667
0.554167
0.541667
0.550000
0.550000
0.545833
0.554167
0.545833
0.550000
0.554167
0.550000
0.554167
0.554167
0.562500
0.550000
0.562500
0.554167
0.562500
0.558333
0.562500
0.554167
0.562500
0.562500
0.558333
0.562500
0.558333
0.566667
0.558333
0.562500
0.562500
0.562500
0.562500
0.562500
0.562500
0.562500
0.562500
0.558333
0.566667
0.562500
0.562500
0.562500
0.562500
0.562500
0.558333
0.562500
0.562500
0.562500
0.562500
0.562500
0.566667
0.558333
0.566667
0.566667
0.562500
0.562500
0.566667
0.566667
0.566667
0.570833
0.562500
0.570833
0.566667
0.570833
0.566667
0.570833
0.566667
0.570833
0.566667
0.562500
0.566667
0.566667
0.554167
0.558333
0.558333
0.550000
0.558333
0.550000
0.554167
0.554167
0.550000
0.550000
0.554167
0.545833
0.554167
0.558333
0.550000
0.562500
0.558333
0.566667
0.558333
0.562500
0.562500
0.562500
0.566667
0.562500
0.570833
0.566667
0.566667
0.558333
0.570833
0.558333
0.562500
0.566667
0.562500
0.566667
0.558333
0.566667
0.558333
0.562500
0.558333
0.558333
0.558333
0.554167
0.566667
0.554167
0.558333
0.554167
0.562500
0.554167
0.562500
0.558333
0.558333
0.566667
0.558333
0.566667
0.554167
0.558333
0.566667
0.558333
0.554167
0.562500
0.550000
0.562500
0.566667
0.562500
0.558333
0.562500
0.554167
0.570833
0.562500
0.562500
0.562500
0.550000
0.566667
0.566667
0.550000
0.566667
0.558333
0.566667
0.566667
0.554167
0.562500
0.566667
0.554167
0.570833
0.558333
0.554167
0.566667
0.558333
0.562500
0.554167
0.554167
0.554167
0.541667
0.550000
0.554167
0.541667
0.541667
0.545833
0.541667
0.550000
0.537500
0.541667
0.529167
0.558333
0.537500
0.545833
0.541667
0.545833
0.533333
0.533333
0.558333
0.537500
0.537500
0.550000
0.541667
0.541667
0.545833
0.545833
0.541667
0.545833
0.537500
0.550000
0.550000
0.533333
0.537500
0.554167
0.529167
0.545833
0.537500
0.541667
0.545833
0.533333
0.545833
0.533333
0.537500
0.612500
0.466667
0.533333
0.541667
0.525000
0.537500
0.537500
0.537500
0.529167
0.533333
0.533333
0.537500
0.533333
0.533333
0.533333
0.533333
0.541667
0.525000
0.537500
0.541667
0.533333
0.537500
0.537500
0.537500
0.541667
0.545833
0.541667
0.541667
0.550000
0.545833
0.545833
0.545833
0.550000
0.545833
0.554167
0.554167
0.550000
0.562500
0.550000
0.558333
0.562500
0.550000
0.554167
0.550000
0.291667
0.258333
0.550000
0.545833
0.654167
0.195833
0.241667
0.645833
0.445833
0.312500
0.770833
1.195833
0.437500
0.283333
0.791667
0.162500
0.912500
0.533333
0.533333
0.533333
0.533333
0.541667
0.525000
0.533333
0.533333
0.533333
0.533333
0.529167
0.541667
0.529167
0.537500
0.541667
0.537500
0.537500
0.545833
0.541667
0.545833
0.545833
0.550000
0.529167
0.558333
0.358333
0.200000
0.279167
0.275000
0.550000
0.550000
0.558333
0.554167
0.550000
0.562500
0.554167
0.562500
0.558333
0.554167
0.558333
0.554167
0.562500
0.562500
0.554167
0.562500
0.562500
0.558333
0.562500
0.562500
0.558333
0.562500
0.558333
0.562500
0.558333
0.558333
0.562500
0.558333
0.558333
0.554167
0.562500
0.558333
0.550000
0.562500
0.554167
0.554167
0.558333
0.550000
0.550000
0.558333
0.545833
0.554167
0.429167
0.670833
0.562500
0.562500
0.550000
0.558333
0.550000
0.558333
0.558333
0.554167
0.558333
0.558333
0.562500
0.558333
0.570833
0.554167
0.570833
0.554167
0.562500
0.566667
0.558333
0.566667
0.566667
0.562500
0.554167
0.570833
0.562500
0.558333
0.562500
0.558333
0.566667
0.562500
0.562500
0.562500
0.550000
0.570833
0.558333
0.554167
0.562500
0.283333
0.341667
0.204167
0.262500
0.545833
0.541667
0.545833
0.533333
0.545833
0.541667
0.612500
0.462500
0.550000
0.250000
0.366667
0.104167
0.337500
0.525000
1.062500
0.508333
0.554167
0.516667
0.620833
0.962500
0.533333
0.500000
0.541667
0.537500
0.533333
0.520833
0.529167
1.054167
0.529167
0.525000
0.525000
0.525000
0.525000
0.804167
0.233333
0.508333
0.662500
0.400000
0.516667
0.520833
0.525000
0.500000
0.537500
0.529167
0.516667
0.525000
0.520833
0.525000
0.525000
0.525000
0.533333
0.529167
1.070833
0.537500
0.525000
0.541667
0.529167
1.075000
1.075000
0.525000
0.545833
0.533333
0.537500
0.550000
0.533333
0.554167
0.545833
0.529167
0.541667
0.545833
0.541667
0.545833
0.529167
0.545833
0.533333
0.545833
0.545833
0.537500
0.541667
0.545833
0.533333
0.545833
0.537500
0.541667
0.545833
0.529167
0.554167
0.541667
0.533333
0.541667
0.545833
0.541667
0.550000
0.541667
0.545833
0.550000
0.529167
0.550000
0.550000
0.541667
0.550000
0.550000
0.533333
0.545833
0.550000
0.541667
0.550000
0.533333
0.554167
0.541667
0.545833
0.545833
0.554167
0.537500
0.550000
0.545833
0.545833
0.554167
0.537500
0.554167
0.550000
0.545833
0.550000
0.554167
0.541667
0.554167
0.541667
0.554167
0.545833
0.550000
0.550000
0.554167
0.541667
0.554167
0.541667
0.554167
0.554167
0.533333
0.554167
0.545833
0.545833
0.554167
0.550000
0.541667
0.554167
0.537500
0.550000
0.545833
0.541667
0.558333
0.537500
0.550000
0.545833
0.550000
0.545833
0.558333
0.537500
0.550000
0.558333
0.537500
0.554167
0.554167
0.545833
0.550000
0.558333
0.554167
0.550000
0.562500
0.541667
0.554167
0.558333
0.545833
0.562500
0.550000
0.554167
0.562500
0.554167
0.545833
0.562500
0.550000
0.550000
0.562500
0.554167
0.550000
0.566667
0.541667
0.562500
0.562500
0.558333
0.550000
0.566667
0.550000
0.554167
0.562500
0.554167
0.554167
0.570833
0.550000
0.545833
0.558333
0.566667
0.545833
0.558333
0.558333
0.541667
0.562500
0.529167
0.566667
0.187500
0.366667
0.550000
0.537500
0.558333
0.275000
0.808333
0.550000
0.533333
0.554167
0.541667
0.537500
0.550000
0.541667
0.533333
0.554167
0.533333
0.545833
0.545833
0.529167
0.541667
0.541667
0.533333
0.550000
0.545833
0.533333
0.541667
0.545833
0.537500
0.545833
0.541667
0.537500
0.550000
0.545833
0.545833
0.550000
0.537500
0.550000
0.541667
0.554167
0.545833
0.545833
0.550000
0.537500
0.550000
0.550000
0.533333
0.545833
0.550000
0.545833
0.541667
0.554167
0.537500
0.545833
0.554167
0.541667
0.550000
0.445833
0.658333
0.545833
0.562500
0.545833
0.554167
0.558333
0.545833
0.554167
0.562500
0.554167
0.545833
0.558333
0.550000
0.554167
0.562500
0.545833
0.562500
0.554167
0.554167
0.554167
0.566667
0.550000
0.562500
0.566667
0.550000
0.562500
0.562500
0.562500
0.545833
0.562500
0.558333
0.554167
0.562500
0.545833
0.562500
0.558333
0.545833
0.566667
0.554167
0.550000
0.558333
0.562500
0.554167
0.550000
0.566667
0.558333
0.550000
0.566667
0.562500
0.554167
0.554167
0.570833
0.554167
0.562500
0.566667
0.554167
0.562500
0.441667
0.683333
0.566667
0.570833
0.558333
0.554167
0.575000
0.562500
0.558333
0.570833
0.562500
0.554167
0.570833
0.554167
0.554167
0.562500
0.562500
0.550000
0.562500
0.541667
0.558333
0.550000
0.541667
0.562500
0.558333
0.541667
0.550000
0.562500
0.533333
0.541667
0.550000
0.545833
0.545833
0.425000
0.670833
0.545833
0.550000
0.541667
0.545833
0.554167
0.537500
0.550000
0.550000
