0.537500
0.541667
0.545833
0.541667
0.541667
0.537500
0.537500
0.541667
0.533333
0.537500
0.533333
0.533333
0.533333
0.533333
0.533333
0.533333
0.529167
0.529167
0.533333
0.533333
0.537500
0.537500
0.537500
0.537500
0.541667
0.545833
0.554167
0.545833
0.550000
0.545833
0.366667
0.075000
0.645833
0.266667
0.470833
0.245833
0.629167
0.533333
0.533333
0.529167
0.533333
0.533333
0.529167
0.537500
0.537500
0.537500
0.533333
0.537500
0.529167
0.537500
0.462500
0.066667
0.316667
0.216667
0.533333
0.533333
0.529167
0.525000
0.525000
0.525000
0.529167
0.525000
0.525000
0.520833
0.525000
0.520833
0.520833
0.525000
0.520833
0.520833
0.525000
0.525000
0.525000
0.529167
0.529167
0.533333
0.533333
0.533333
0.529167
0.537500
0.533333
0.537500
0.533333
0.529167
0.533333
0.533333
0.533333
0.683333
0.554167
0.358333
0.529167
0.520833
0.525000
0.525000
0.525000
0.525000
0.525000
0.525000
0.533333
0.529167
0.525000
0.537500
0.516667
0.525000
0.520833
0.520833
0.525000
0.525000
0.529167
0.520833
0.525000
0.525000
0.525000
0.525000
0.525000
0.529167
0.529167
0.533333
0.533333
0.533333
0.537500
0.529167
0.533333
0.541667
0.537500
0.545833
0.541667
0.545833
0.541667
0.545833
0.550000
0.545833
0.545833
0.550000
0.545833
0.408333
0.133333
0.537500
0.541667
0.216667
0.866667
0.537500
0.537500
0.541667
0.537500
0.545833
0.541667
0.537500
0.545833
0.533333
0.541667
0.537500
0.708333
0.370833
0.208333
0.341667
0.537500
0.537500
0.533333
0.541667
0.533333
0.533333
0.533333
0.300000
0.225000
0.529167
0.533333
0.529167
0.529167
0.537500
0.533333
0.537500
0.533333
0.537500
0.537500
0.545833
0.529167
0.537500
0.537500
0.541667
0.545833
0.533333
0.537500
0.537500
0.533333
0.541667
0.541667
0.541667
0.541667
0.550000
0.554167
0.545833
0.545833
0.537500
0.545833
0.550000
0.545833
0.541667
0.541667
0.541667
0.545833
0.541667
0.541667
0.241667
0.425000
0.275000
0.275000
0.420833
0.537500
0.550000
0.545833
0.545833
0.545833
0.541667
0.541667
0.541667
0.537500
0.537500
0.529167
0.541667
0.541667
0.541667
0.537500
0.537500
0.533333
0.537500
0.541667
0.533333
0.541667
0.533333
0.537500
0.533333
0.537500
0.533333
0.541667
0.533333
0.537500
0.541667
0.545833
0.545833
0.550000
0.541667
0.545833
0.541667
0.541667
0.550000
0.541667
0.554167
0.545833
0.550000
0.545833
0.550000
0.550000
0.550000
0.550000
0.545833
0.545833
0.554167
0.550000
0.545833
0.545833
0.550000
0.541667
0.550000
0.333333
0.212500
0.541667
0.541667
0.537500
0.537500
0.537500
0.533333
0.529167
0.533333
0.533333
0.529167
0.529167
0.529167
0.520833
0.533333
0.525000
0.512500
0.533333
0.520833
0.525000
0.525000
0.525000
0.520833
0.525000
0.650000
0.879167
0.570833
0.520833
0.525000
0.520833
0.529167
0.533333
0.529167
0.533333
0.537500
0.545833
0.541667
0.545833
0.541667
0.550000
0.545833
0.550000
0.545833
0.541667
0.545833
0.541667
0.545833
0.537500
0.541667
0.545833
0.545833
0.541667
0.537500
0.541667
0.545833
0.541667
0.537500
0.545833
0.550000
0.545833
0.550000
0.550000
0.550000
0.545833
0.545833
0.541667
0.533333
0.208333
0.875000
0.537500
0.533333
0.541667
0.533333
0.533333
0.533333
0.154167
0.370833
0.541667
0.533333
0.537500
0.533333
0.529167
0.533333
0.533333
0.533333
0.529167
0.529167
0.533333
0.525000
0.529167
0.533333
0.533333
0.541667
0.541667
0.533333
0.537500
0.537500
0.537500
0.541667
0.545833
0.545833
0.545833
0.541667
0.545833
0.545833
0.433333
0.645833
0.550000
0.545833
0.554167
0.550000
0.554167
0.550000
0.550000
0.554167
0.558333
0.550000
0.550000
0.554167
0.550000
0.554167
0.558333
0.550000
0.554167
0.554167
0.558333
0.554167
0.545833
0.554167
0.550000
0.550000
0.425000
0.675000
0.562500
0.558333
0.554167
0.558333
0.558333
0.554167
0.562500
0.562500
0.566667
0.554167
0.550000
0.558333
0.558333
0.550000
0.545833
0.554167
0.550000
0.541667
0.541667
0.537500
0.537500
0.533333
0.541667
0.533333
0.529167
0.533333
0.529167
0.537500
0.529167
0.529167
0.525000
0.520833
0.525000
0.520833
0.525000
0.525000
0.408333
0.629167
0.337500
0.716667
0.525000
0.525000
0.520833
0.529167
0.525000
0.525000
0.529167
0.533333
0.533333
0.529167
0.529167
0.529167
0.533333
0.525000
0.529167
0.533333
0.537500
0.533333
0.275000
0.258333
0.316667
0.212500
0.533333
0.741667
0.312500
0.208333
0.320833
0.525000
0.529167
0.525000
0.525000
0.529167
0.525000
0.533333
0.529167
0.529167
0.529167
0.529167
0.525000
0.525000
0.533333
0.533333
0.529167
0.533333
0.525000
0.533333
0.533333
0.537500
0.533333
0.533333
0.533333
0.537500
0.537500
0.541667
0.545833
0.545833
0.545833
0.550000
0.550000
0.554167
0.545833
0.550000
0.545833
0.550000
0.550000
0.554167
0.550000
0.554167
0.554167
0.554167
0.550000
0.545833
0.541667
0.541667
0.537500
0.533333
0.533333
0.333333
0.200000
0.533333
0.533333
0.529167
0.262500
0.791667
0.525000
0.525000
0.529167
0.525000
0.529167
0.525000
0.529167
0.529167
0.529167
0.529167
0.533333
0.533333
0.541667
0.545833
0.537500
0.541667
0.545833
0.545833
0.550000
0.545833
0.550000
0.554167
0.550000
0.550000
0.550000
0.545833
0.545833
0.550000
0.550000
0.541667
0.545833
0.541667
0.545833
0.545833
0.537500
0.545833
0.545833
0.545833
0.545833
0.541667
0.545833
0.545833
0.545833
0.545833
0.537500
0.550000
0.554167
0.550000
0.558333
0.550000
0.550000
0.554167
0.562500
0.558333
0.554167
0.550000
0.554167
0.550000
0.545833
0.541667
0.537500
0.537500
0.533333
0.270833
0.258333
0.533333
0.525000
0.529167
0.825000
0.225000
0.525000
0.525000
0.525000
0.529167
0.520833
0.525000
0.520833
0.525000
0.525000
0.529167
0.525000
0.529167
0.529167
0.533333
0.533333
0.537500
0.537500
0.537500
0.541667
0.541667
0.550000
0.545833
0.537500
0.550000
0.550000
0.554167
0.629167
0.395833
0.608333
0.537500
0.541667
0.295833
0.245833
0.529167
0.529167
0.208333
0.325000
0.525000
0.529167
0.529167
0.529167
0.529167
0.529167
0.525000
0.529167
0.525000
0.533333
0.529167
0.533333
0.533333
0.533333
0.529167
0.529167
0.529167
0.525000
0.529167
0.529167
0.529167
0.533333
0.533333
0.537500
0.541667
0.545833
0.541667
0.545833
0.550000
0.550000
0.554167
0.550000
0.541667
0.550000
0.545833
0.550000
0.545833
0.537500
0.545833
0.550000
0.550000
0.554167
0.554167
0.554167
0.558333
0.562500
0.558333
0.558333
0.562500
0.570833
0.566667
0.566667
0.562500
0.562500
0.279167
0.283333
0.341667
0.225000
0.554167
0.545833
0.554167
0.554167
0.545833
0.545833
0.545833
0.545833
0.545833
0.545833
0.541667
0.550000
0.550000
0.545833
0.550000
0.545833
0.554167
0.550000
0.554167
0.545833
0.545833
0.550000
0.550000
0.558333
0.550000
0.554167
0.554167
0.554167
0.558333
0.558333
0.558333
0.558333
0.558333
0.558333
0.550000
0.554167
0.558333
0.558333
0.558333
0.558333
0.554167
0.558333
0.558333
0.554167
0.554167
0.558333
0.550000
0.554167
0.554167
0.554167
0.554167
0.550000
0.554167
0.554167
0.558333
0.558333
0.558333
0.554167
0.554167
0.554167
0.558333
0.554167
0.558333
0.550000
0.554167
0.554167
0.554167
0.562500
0.570833
0.566667
0.566667
0.562500
0.562500
0.562500
0.258333
0.295833
0.562500
0.558333
0.550000
0.550000
0.229167
0.670833
0.733333
0.545833
0.545833
0.795833
0.141667
0.387500
0.300000
0.537500
0.541667
0.541667
0.545833
0.541667
0.537500
0.541667
0.541667
0.541667
0.537500
0.537500
0.541667
0.541667
0.541667
0.541667
0.545833
0.541667
0.550000
0.541667
0.541667
0.550000
0.550000
0.545833
1.100000
0.191667
0.345833
0.545833
0.545833
0.541667
0.537500
0.537500
0.537500
0.533333
0.529167
0.537500
0.533333
0.533333
0.533333
0.533333
0.537500
0.537500
0.537500
0.537500
0.537500
0.545833
0.466667
0.625000
0.550000
0.550000
0.550000
0.550000
0.545833
0.550000
0.545833
0.545833
0.550000
0.262500
0.283333
0.200000
0.341667
0.545833
0.541667
0.541667
0.541667
0.541667
0.533333
0.537500
0.537500
0.533333
0.537500
0.529167
0.537500
0.533333
0.533333
0.533333
0.537500
0.533333
0.537500
0.537500
0.537500
0.537500
0.541667
0.541667
0.541667
0.541667
0.550000
0.550000
0.558333
0.554167
0.566667
0.662500
0.458333
0.291667
0.258333
0.550000
0.541667
0.550000
0.545833
0.545833
0.533333
0.537500
0.533333
0.537500
0.529167
0.529167
0.529167
0.533333
0.529167
0.529167
0.529167
0.533333
0.533333
0.537500
0.533333
1.329167
0.283333
0.533333
0.537500
0.533333
0.537500
0.529167
0.529167
0.533333
0.533333
0.529167
0.529167
0.533333
0.533333
0.537500
0.533333
0.533333
0.533333
0.537500
0.541667
0.533333
0.541667
0.541667
0.545833
0.545833
0.545833
0.545833
0.545833
0.541667
0.550000
0.550000
0.554167
0.554167
0.545833
0.554167
0.550000
0.550000
0.554167
0.554167
0.558333
0.554167
0.558333
0.554167
0.554167
0.554167
0.558333
0.562500
0.562500
0.562500
0.808333
0.295833
0.550000
0.541667
0.545833
0.545833
0.537500
0.541667
0.541667
0.537500
0.541667
0.537500
0.533333
0.537500
0.541667
0.533333
0.533333
0.533333
0.529167
0.533333
0.537500
0.529167
0.529167
0.533333
0.533333
0.537500
0.537500
0.533333
0.545833
0.541667
0.545833
0.541667
0.545833
0.550000
0.550000
0.550000
0.633333
0.220833
0.241667
0.545833
0.541667
0.545833
0.545833
0.533333
0.537500
0.541667
0.537500
0.533333
0.533333
0.529167
0.529167
0.525000
0.529167
0.329167
0.195833
0.437500
0.620833
0.537500
0.529167
0.529167
0.529167
0.533333
0.529167
0.529167
0.529167
0.533333
0.541667
0.533333
0.537500
0.541667
0.537500
0.537500
0.312500
0.229167
0.541667
0.525000
0.537500
0.537500
0.533333
0.541667
0.541667
0.541667
0.537500
0.541667
0.537500
0.541667
0.541667
0.533333
0.541667
0.545833
0.541667
0.545833
0.541667
0.545833
0.545833
0.541667
0.537500
0.537500
0.537500
0.541667
0.541667
0.541667
0.541667
0.541667
0.541667
0.545833
0.541667
0.545833
0.550000
0.550000
0.558333
0.554167
0.545833
0.562500
0.558333
0.566667
0.558333
0.554167
0.554167
0.554167
0.558333
0.550000
0.566667
0.554167
0.554167
0.558333
0.554167
0.562500
0.554167
0.554167
0.562500
0.558333
0.558333
0.554167
0.558333
0.562500
0.566667
0.554167
0.554167
0.558333
0.554167
0.554167
0.558333
0.341667
0.208333
0.441667
0.654167
0.545833
0.545833
0.541667
0.541667
0.541667
0.537500
0.541667
0.541667
0.545833
0.329167
0.216667
0.541667
0.537500
0.537500
0.533333
0.537500
0.537500
0.283333
0.254167
0.533333
0.537500
0.533333
0.495833
0.233333
0.354167
0.241667
0.825000
0.533333
0.541667
0.533333
0.533333
0.533333
0.537500
0.533333
0.537500
0.537500
0.541667
0.537500
0.541667
0.545833
0.545833
0.541667
0.541667
0.541667
0.537500
0.541667
0.537500
0.537500
0.541667
0.545833
0.537500
0.541667
0.541667
0.545833
0.537500
0.545833
0.541667
0.550000
0.491667
0.450000
0.141667
0.545833
0.325000
0.220833
0.541667
0.545833
0.545833
0.541667
0.533333
0.454167
0.816667
0.320833
0.533333
0.529167
0.533333
0.537500
0.529167
0.529167
0.529167
0.537500
0.537500
0.533333
0.533333
0.537500
0.537500
0.533333
0.537500
0.541667
0.537500
0.537500
0.541667
0.541667
0.545833
0.545833
0.545833
0.483333
0.595833
0.533333
0.537500
0.529167
