0.333333
0.337500
0.325000
0.308333
0.308333
0.325000
0.320833
0.329167
0.316667
0.341667
0.341667
0.329167
0.325000
0.220833
0.412500
0.216667
0.387500
0.316667
0.366667
0.366667
0.325000
0.316667
0.329167
0.325000
0.337500
0.354167
0.329167
0.225000
0.408333
0.358333
0.379167
0.333333
0.337500
0.333333
0.329167
0.341667
0.316667
0.304167
0.300000
0.304167
0.320833
0.358333
0.358333
0.316667
0.295833
0.312500
0.320833
0.312500
0.320833
0.341667
0.337500
0.325000
0.358333
0.354167
0.220833
0.429167
0.300000
0.308333
0.325000
0.312500
0.304167
0.320833
0.320833
0.312500
0.325000
0.362500
0.345833
0.325000
0.312500
0.312500
0.216667
0.425000
0.429167
0.345833
0.329167
0.333333
0.329167
0.325000
0.320833
0.345833
0.362500
0.329167
0.316667
0.325000
0.325000
0.333333
0.370833
0.337500
0.325000
0.329167
0.333333
0.358333
0.350000
0.320833
0.325000
0.333333
0.304167
0.212500
0.445833
0.350000
0.329167
0.329167
0.329167
0.358333
0.345833
0.329167
0.329167
0.325000
0.325000
0.216667
0.412500
0.316667
0.325000
0.354167
0.383333
0.354167
0.375000
0.604167
0.233333
0.300000
0.308333
0.308333
0.333333
0.329167
0.316667
0.333333
0.337500
0.583333
0.254167
0.437500
0.354167
0.304167
0.283333
0.316667
0.212500
0.779167
0.237500
0.312500
0.333333
0.329167
0.304167
0.308333
0.320833
0.316667
0.216667
0.383333
0.358333
0.325000
0.216667
0.408333
0.325000
0.308333
0.341667
0.337500
0.300000
0.320833
0.637500
0.354167
0.333333
0.316667
0.329167
0.333333
0.325000
0.333333
0.341667
0.395833
0.425000
0.333333
0.312500
0.362500
0.345833
0.316667
0.308333
0.320833
0.325000
0.304167
0.295833
0.308333
0.333333
0.312500
0.379167
0.337500
0.325000
0.216667
0.412500
0.304167
0.291667
0.304167
0.320833
0.320833
0.325000
0.320833
0.325000
0.370833
0.345833
0.354167
0.466667
0.358333
0.325000
0.212500
0.429167
0.212500
0.437500
0.358333
0.350000
0.320833
0.291667
0.308333
0.325000
0.316667
0.341667
0.341667
0.358333
0.395833
0.350000
0.341667
0.312500
0.270833
0.333333
0.354167
0.329167
0.333333
0.316667
0.291667
0.325000
0.354167
0.325000
0.370833
0.341667
0.325000
0.308333
0.337500
0.333333
0.312500
0.300000
0.308333
0.333333
0.345833
0.316667
0.308333
0.362500
0.325000
0.316667
0.316667
0.312500
0.312500
0.316667
0.316667
0.316667
0.329167
0.341667
0.337500
0.320833
0.354167
1.591667
0.879167
0.850000
0.791667
1.504167
1.362500
0.591667
1.062500
1.291667
0.866667
0.837500
0.837500
0.650000
1.337500
0.854167
0.787500
0.745833
0.750000
0.737500
0.745833
0.729167
0.745833
0.720833
0.754167
0.720833
0.733333
0.733333
0.733333
0.737500
0.733333
0.737500
0.741667
0.741667
0.741667
0.741667
0.750000
0.745833
0.745833
0.745833
0.754167
0.750000
0.745833
0.750000
0.750000
0.745833
0.741667
0.750000
0.750000
0.745833
0.741667
0.750000
0.745833
0.745833
0.741667
0.741667
0.745833
0.741667
0.737500
0.737500
0.737500
0.737500
0.733333
0.733333
0.733333
0.733333
0.733333
0.733333
0.733333
0.729167
0.733333
0.729167
0.737500
0.729167
0.729167
0.729167
0.733333
0.729167
0.737500
0.725000
0.729167
0.729167
0.733333
0.720833
0.733333
0.725000
0.729167
0.725000
0.729167
0.725000
0.729167
0.720833
0.729167
0.725000
0.725000
0.720833
0.725000
0.725000
0.725000
0.716667
0.725000
0.725000
0.716667
0.725000
0.720833
0.716667
0.716667
0.716667
0.416667
0.883333
0.820833
0.441667
1.195833
0.458333
0.591667
0.570833
0.608333
0.608333
0.600000
0.545833
0.404167
0.345833
1.358333
0.733333
0.645833
0.400000
0.341667
0.366667
0.616667
0.266667
0.933333
0.695833
0.591667
0.358333
0.320833
0.312500
0.895833
0.700000
0.587500
0.400000
0.345833
0.304167
0.283333
0.287500
0.312500
0.320833
0.237500
0.429167
0.320833
0.312500
0.316667
0.337500
0.341667
0.337500
0.325000
1.150000
0.420833
1.029167
0.700000
0.566667
1.241667
0.712500
0.658333
0.695833
0.595833
0.787500
1.558333
0.741667
0.804167
0.725000
0.570833
0.604167
0.816667
0.779167
0.675000
0.670833
0.554167
0.245833
0.533333
0.716667
0.270833
0.320833
0.320833
0.312500
0.320833
0.329167
0.312500
0.312500
0.325000
0.241667
0.383333
0.300000
0.345833
0.333333
0.329167
0.337500
0.350000
0.362500
0.341667
0.325000
0.320833
0.304167
0.300000
0.341667
0.333333
0.341667
0.383333
0.362500
0.612500
0.520833
1.283333
0.333333
1.416667
0.712500
0.879167
0.608333
0.708333
0.670833
0.625000
0.641667
0.604167
0.287500
0.345833
0.350000
0.341667
0.245833
0.400000
0.345833
0.354167
0.329167
0.308333
0.333333
0.329167
0.354167
0.362500
0.325000
0.312500
0.316667
0.325000
0.316667
0.316667
0.320833
0.337500
0.491667
0.229167
0.412500
0.358333
0.341667
0.333333
0.337500
0.337500
0.337500
0.354167
0.333333
0.308333
0.304167
0.329167
0.320833
0.316667
0.333333
0.316667
0.320833
0.325000
0.350000
0.375000
0.341667
0.325000
0.312500
0.283333
0.287500
0.312500
0.304167
0.350000
0.375000
0.341667
0.329167
0.325000
0.329167
0.316667
0.291667
0.300000
0.320833
0.308333
0.304167
0.379167
0.350000
0.325000
0.320833
0.320833
0.325000
0.387500
0.562500
0.241667
0.291667
0.287500
0.312500
0.304167
0.325000
0.337500
0.333333
0.558333
0.270833
0.325000
0.325000
0.329167
0.308333
0.316667
0.345833
0.350000
0.358333
0.229167
0.416667
0.312500
0.333333
0.337500
0.420833
0.366667
0.329167
0.229167
0.366667
0.320833
0.362500
0.333333
0.316667
0.320833
0.333333
0.375000
0.525000
0.350000
0.316667
0.500000
0.500000
0.225000
0.300000
0.329167
0.341667
0.337500
0.337500
0.587500
0.129167
0.379167
0.308333
0.316667
0.316667
0.325000
0.345833
0.375000
0.337500
0.387500
0.358333
0.329167
0.295833
0.295833
0.316667
0.312500
0.337500
0.350000
0.341667
0.304167
0.287500
0.325000
0.308333
0.304167
0.329167
0.325000
0.325000
0.220833
0.412500
0.329167
0.350000
0.341667
0.333333
0.341667
0.329167
0.325000
0.295833
0.337500
0.370833
0.345833
0.320833
0.329167
0.337500
0.350000
0.229167
0.375000
0.308333
0.291667
0.316667
0.408333
0.462500
0.412500
0.400000
0.233333
0.404167
0.341667
0.316667
0.316667
0.300000
0.329167
0.370833
0.341667
0.229167
0.325000
0.375000
0.287500
0.316667
0.520833
0.362500
0.345833
0.333333
0.329167
0.225000
0.433333
0.370833
0.370833
0.308333
0.316667
0.325000
0.291667
0.304167
0.345833
0.325000
0.308333
0.300000
0.316667
0.216667
0.358333
0.354167
0.366667
0.320833
0.354167
0.366667
0.337500
0.325000
0.320833
0.312500
0.316667
0.300000
0.341667
0.358333
0.333333
0.312500
0.316667
0.316667
0.341667
0.366667
0.329167
0.312500
0.354167
0.325000
0.325000
0.329167
0.291667
0.320833
0.312500
0.291667
0.337500
0.370833
0.383333
0.537500
0.400000
0.541667
0.250000
0.325000
0.295833
0.304167
0.312500
0.341667
0.370833
0.341667
0.329167
0.325000
0.312500
0.320833
0.333333
0.362500
0.325000
0.291667
0.308333
0.354167
0.333333
0.316667
0.320833
0.329167
0.350000
0.337500
0.325000
0.312500
0.300000
0.316667
0.325000
0.337500
0.345833
0.329167
0.329167
0.341667
0.333333
0.325000
0.308333
0.316667
0.375000
0.333333
0.350000
0.354167
0.337500
0.408333
0.337500
0.320833
0.216667
1.862500
0.362500
1.275000
0.329167
1.233333
0.329167
1.212500
0.329167
1.491667
0.345833
1.400000
0.345833
1.270833
0.441667
1.216667
0.433333
1.212500
0.429167
1.241667
0.441667
1.191667
1.620833
1.570833
1.416667
1.483333
1.495833
1.495833
1.495833
1.495833
0.779167
1.470833
1.495833
0.700000
0.554167
0.508333
0.504167
0.625000
0.562500
0.591667
0.637500
0.520833
0.650000
0.616667
0.633333
0.537500
0.420833
0.541667
0.387500
0.404167
0.520833
0.350000
0.470833
0.433333
0.225000
0.312500
0.329167
0.237500
0.358333
0.320833
0.587500
0.270833
0.320833
0.341667
0.329167
0.320833
0.337500
0.233333
0.408333
0.337500
0.333333
0.316667
0.316667
0.316667
0.300000
0.304167
0.341667
0.562500
0.262500
0.345833
0.345833
0.337500
0.333333
0.320833
0.383333
0.375000
0.337500
0.304167
0.279167
0.329167
0.375000
0.341667
0.325000
0.350000
0.366667
0.333333
0.304167
0.304167
0.308333
0.300000
0.320833
0.345833
0.325000
0.333333
0.425000
0.333333
0.312500
0.333333
0.316667
0.291667
0.287500
0.337500
0.529167
0.229167
0.316667
0.329167
0.333333
0.316667
0.354167
0.308333
0.304167
0.329167
0.329167
0.329167
0.345833
0.466667
0.354167
0.316667
0.350000
0.350000
0.237500
0.408333
0.333333
0.345833
0.325000
0.316667
0.333333
0.333333
0.329167
0.325000
0.279167
0.329167
0.312500
0.320833
0.225000
0.441667
0.333333
0.308333
0.283333
0.291667
0.320833
0.341667
0.395833
0.354167
0.350000
0.337500
0.358333
0.333333
0.295833
0.270833
0.295833
0.320833
0.320833
0.329167
0.354167
0.587500
0.291667
0.412500
0.412500
0.379167
0.337500
0.312500
0.304167
0.325000
0.341667
0.366667
0.337500
0.320833
0.337500
0.325000
0.220833
0.383333
0.291667
0.316667
0.304167
0.345833
0.366667
0.350000
0.325000
0.308333
0.300000
0.312500
0.366667
0.350000
0.329167
0.325000
0.366667
0.312500
0.320833
0.308333
0.316667
0.366667
0.350000
0.375000
0.345833
0.320833
0.300000
0.312500
0.379167
0.341667
0.225000
0.308333
0.400000
0.308333
0.308333
0.345833
0.362500
0.333333
0.329167
0.329167
0.220833
0.395833
0.304167
0.337500
0.370833
0.495833
0.354167
0.529167
0.383333
0.354167
0.308333
0.283333
0.316667
0.412500
0.354167
0.341667
0.220833
0.354167
0.350000
0.375000
0.325000
0.354167
0.350000
0.341667
0.325000
0.220833
0.416667
0.345833
0.333333
0.333333
0.325000
0.300000
0.279167
0.391667
0.383333
0.329167
0.620833
0.283333
0.354167
0.337500
0.320833
0.316667
0.320833
0.316667
0.320833
0.220833
0.404167
0.333333
0.320833
0.320833
0.333333
0.325000
0.329167
0.220833
0.387500
0.320833
0.362500
0.329167
0.325000
0.325000
0.329167
0.325000
0.325000
0.300000
0.320833
0.220833
0.637500
0.445833
0.341667
0.312500
0.295833
0.312500
0.329167
0.312500
0.312500
0.358333
0.341667
0.320833
0.316667
0.304167
0.308333
0.312500
0.216667
0.312500
0.300000
0.420833
0.312500
0.325000
0.350000
0.366667
0.387500
0.333333
0.325000
0.345833
0.358333
0.345833
0.387500
0.391667
0.587500
0.220833
0.283333
0.295833
0.308333
0.325000
0.312500
0.300000
0.341667
0.383333
0.370833
0.333333
0.325000
0.316667
0.333333
0.704167
0.250000
0.329167
0.320833
0.312500
0.345833
0.345833
0.325000
0.308333
0.316667
0.329167
0.216667
0.433333
0.350000
0.345833
0.450000
0.508333
0.412500
1.441667
1.179167
0.950000
0.845833
1.091667
1.016667
0.866667
0.870833
0.741667
0.650000
1.375000
0.850000
0.791667
0.745833
0.850000
0.666667
0.754167
0.750000
0.750000
0.750000
0.745833
0.737500
0.750000
0.741667
0.750000
0.745833
0.750000
0.745833
0.745833
0.754167
0.745833
0.750000
0.754167
0.754167
0.750000
0.750000
0.758333
0.754167
0.754167
0.754167
0.758333
0.750000
0.754167
0.758333
0.754167
0.745833
0.754167
0.754167
0.750000
0.750000
0.754167
0.754167
0.741667
0.758333
0.741667
0.754167
0.737500
0.750000
0.750000
1.179167
0.475000
0.708333
0.408333
1.320833
0.458333
0.587500
0.595833
0.629167
0.670833
1.466667
0.725000
0.604167
0.383333
0.320833
0.312500
0.312500
0.329167
0.316667
0.329167
0.320833
0.312500
0.358333
0.354167
0.325000
1.129167
0.729167
0.766667
0.683333
0.637500
0.704167
0.454167
0.241667
0.291667
0.300000
0.320833
0.325000
0.312500
0.308333
0.333333
0.462500
0.241667
0.325000
0.333333
0.333333
0.325000
0.320833
0.337500
0.329167
0.337500
0.504167
0.250000
0.333333
0.325000
0.316667
0.358333
0.358333
0.333333
0.329167
0.308333
0.304167
0.316667
0.304167
0.316667
0.320833
0.329167
0.320833
0.333333
0.375000
0.341667
0.354167
0.337500
0.312500
0.304167
0.341667
0.337500
0.325000
0.337500
0.320833
0.295833
0.291667
0.308333
0.316667
0.229167
0.420833
0.325000
0.333333
0.333333
0.316667
0.308333
0.329167
0.350000
0.354167
0.712500
1.712500
0.320833
0.341667
0.345833
0.333333
0.362500
0.495833
0.241667
0.325000
0.304167
0.291667
0.333333
0.320833
0.300000
0.354167
0.325000
0.350000
0.345833
0.366667
0.379167
0.333333
0.562500
0.266667
0.341667
0.354167
0.354167
0.341667
0.395833
0.612500
0.233333
0.287500
0.283333
0.295833
0.300000
0.491667
0.262500
0.337500
0.333333
0.325000
0.225000
0.362500
0.287500
0.287500
0.337500
0.637500
0.258333
0.466667
0.216667
0.316667
0.312500
0.304167
0.333333
0.341667
0.341667
0.345833
0.329167
0.333333
0.341667
0.325000
0.287500
0.300000
0.333333
0.304167
0.287500
0.283333
0.320833
0.333333
0.325000
0.345833
0.341667
0.287500
0.287500
0.329167
0.345833
0.316667
0.295833
0.379167
0.383333
0.316667
0.283333
0.312500
0.325000
0.325000
0.316667
0.216667
0.395833
0.345833
0.337500
0.333333
0.358333
0.320833
0.370833
0.354167
0.329167
0.304167
0.304167
0.329167
0.320833
0.304167
0.329167
0.700000
0.129167
0.454167
0.312500
0.270833
0.279167
0.320833
0.320833
0.325000
0.320833
0.329167
0.341667
0.329167
0.350000
0.470833
0.358333
0.329167
0.329167
0.370833
0.316667
0.316667
0.325000
0.395833
0.354167
0.354167
0.333333
0.308333
0.304167
0.291667
0.291667
0.425000
0.337500
0.312500
0.383333
0.362500
1.312500
0.845833
1.241667
0.345833
1.495833
0.354167
1.320833
0.433333
1.258333
0.433333
1.245833
0.429167
1.204167
0.433333
1.183333
0.550000
0.966667
1.404167
1.412500
1.450000
