0.325000
0.379167
0.520833
0.654167
0.354167
0.320833
0.416667
0.429167
0.366667
0.333333
0.350000
0.370833
0.329167
0.308333
0.287500
0.308333
0.383333
0.370833
0.350000
0.425000
0.354167
0.329167
0.320833
0.325000
0.341667
0.333333
0.337500
0.337500
0.345833
0.337500
0.333333
0.329167
0.337500
0.345833
0.333333
0.370833
0.341667
0.412500
0.366667
0.333333
0.333333
0.325000
0.333333
0.333333
0.325000
0.341667
0.333333
0.329167
0.341667
0.337500
0.354167
0.350000
0.333333
0.358333
0.320833
0.341667
0.337500
0.325000
0.333333
0.345833
0.337500
0.337500
0.337500
0.329167
0.329167
0.370833
0.358333
0.316667
0.300000
0.304167
0.304167
0.408333
0.425000
0.354167
0.316667
0.329167
0.312500
0.333333
0.350000
0.341667
0.345833
0.337500
0.329167
0.308333
0.333333
0.325000
0.333333
0.408333
0.341667
0.333333
0.325000
0.308333
0.350000
0.366667
0.354167
0.320833
0.320833
0.325000
0.529167
0.391667
0.391667
0.354167
0.358333
0.470833
2.137500
1.333333
0.795833
1.325000
1.316667
0.945833
0.900000
0.908333
0.833333
0.729167
0.741667
1.270833
0.829167
0.725000
1.287500
0.829167
0.720833
1.258333
0.829167
0.712500
1.229167
0.845833
0.704167
1.241667
1.433333
1.366667
1.391667
1.404167
1.400000
1.404167
1.412500
1.412500
1.412500
1.483333
0.870833
1.800000
1.762500
0.725000
0.475000
1.187500
0.754167
0.716667
0.700000
0.570833
1.900000
1.741667
0.750000
1.533333
0.762500
0.616667
0.579167
0.629167
0.662500
0.808333
0.633333
0.575000
0.675000
0.729167
0.654167
0.700000
0.704167
0.691667
0.650000
0.587500
0.750000
0.654167
0.620833
0.537500
0.375000
0.308333
0.529167
0.516667
0.395833
0.312500
0.337500
0.529167
0.370833
0.304167
0.304167
0.341667
0.354167
0.383333
0.387500
0.370833
0.329167
0.320833
0.320833
0.320833
0.370833
0.350000
0.341667
0.366667
0.420833
0.479167
0.458333
0.354167
0.304167
0.295833
0.316667
0.350000
0.333333
0.337500
0.395833
0.379167
0.379167
0.462500
0.437500
0.370833
0.512500
0.354167
0.291667
0.295833
0.291667
0.345833
0.350000
0.329167
0.325000
0.304167
0.329167
0.337500
0.337500
0.329167
0.320833
0.308333
0.345833
0.354167
0.362500
0.354167
0.341667
0.341667
0.341667
0.333333
0.333333
0.308333
0.312500
0.337500
0.333333
0.312500
0.329167
0.345833
0.337500
0.337500
0.329167
0.329167
0.329167
0.375000
0.354167
0.341667
0.370833
0.341667
0.329167
0.329167
0.325000
0.316667
0.329167
0.345833
0.358333
0.329167
0.437500
0.362500
0.333333
0.333333
0.329167
0.325000
0.329167
0.329167
0.329167
0.312500
0.320833
0.325000
0.341667
0.316667
0.345833
0.345833
0.329167
0.325000
0.325000
0.320833
0.337500
0.370833
0.379167
0.433333
0.420833
0.475000
0.345833
0.291667
0.295833
0.304167
0.304167
0.333333
0.337500
0.333333
0.333333
0.325000
0.325000
0.333333
0.337500
0.333333
0.333333
0.333333
0.325000
0.325000
0.358333
0.370833
0.329167
0.350000
0.387500
0.445833
0.425000
0.425000
0.354167
0.329167
0.325000
0.333333
0.325000
0.325000
0.325000
0.325000
0.320833
0.333333
0.337500
0.341667
0.350000
0.325000
0.354167
0.341667
0.320833
0.312500
0.320833
0.316667
0.312500
0.333333
0.354167
0.358333
0.537500
0.350000
0.304167
0.325000
0.308333
0.320833
0.337500
0.333333
0.337500
0.337500
0.320833
0.329167
0.333333
0.333333
0.333333
0.333333
0.341667
0.341667
0.366667
0.354167
0.345833
0.354167
0.345833
0.308333
0.304167
0.345833
0.333333
0.350000
0.362500
0.345833
0.350000
0.341667
0.375000
0.366667
0.333333
0.395833
0.379167
0.333333
0.316667
0.312500
0.308333
0.375000
0.362500
0.495833
0.354167
0.337500
0.512500
0.350000
0.312500
0.304167
0.329167
0.379167
0.333333
0.383333
0.345833
0.325000
0.320833
0.337500
0.358333
0.362500
0.337500
0.345833
0.329167
0.333333
0.345833
0.375000
0.350000
0.320833
0.312500
0.312500
0.325000
0.333333
0.329167
0.325000
0.350000
0.412500
0.379167
0.345833
0.316667
0.345833
0.341667
0.325000
0.345833
0.345833
0.341667
0.379167
0.341667
0.341667
0.362500
0.341667
0.412500
0.366667
0.329167
0.300000
0.312500
0.395833
0.445833
0.358333
0.329167
0.325000
0.325000
0.341667
0.333333
0.375000
0.375000
0.345833
0.308333
0.308333
0.325000
0.333333
0.341667
0.329167
0.320833
0.316667
0.395833
0.358333
0.379167
0.337500
0.325000
0.400000
0.362500
0.333333
0.354167
0.366667
0.329167
0.362500
0.312500
0.329167
0.333333
0.320833
0.333333
0.362500
0.337500
0.325000
0.333333
0.316667
0.320833
0.333333
0.337500
0.329167
0.329167
0.329167
0.333333
0.312500
0.325000
0.370833
0.350000
0.333333
0.329167
0.312500
0.320833
0.333333
0.341667
0.362500
0.358333
0.333333
0.350000
0.329167
0.308333
0.337500
0.358333
0.337500
0.354167
0.345833
0.329167
0.308333
0.341667
0.341667
0.391667
0.354167
0.333333
0.366667
0.366667
0.345833
0.337500
0.337500
0.341667
0.337500
0.333333
0.329167
0.320833
0.329167
0.337500
0.341667
0.312500
0.333333
0.350000
0.341667
0.354167
0.354167
0.329167
0.337500
0.329167
0.308333
0.345833
0.358333
0.345833
0.341667
0.333333
0.308333
0.329167
0.333333
0.325000
0.366667
0.508333
0.387500
0.341667
0.320833
0.312500
0.379167
0.379167
0.329167
0.350000
0.375000
0.350000
0.341667
0.329167
0.329167
0.333333
0.312500
0.329167
0.341667
0.333333
0.333333
0.320833
0.350000
0.391667
0.345833
0.333333
0.337500
0.325000
0.329167
0.341667
0.333333
0.366667
0.358333
0.358333
0.358333
0.337500
0.358333
0.358333
0.333333
0.354167
0.420833
0.441667
0.408333
0.454167
0.345833
0.350000
0.362500
0.341667
0.329167
0.329167
0.325000
0.325000
0.358333
0.362500
0.329167
0.337500
0.333333
0.329167
0.320833
0.320833
0.325000
0.325000
0.345833
0.400000
0.358333
0.383333
0.358333
0.345833
0.325000
0.329167
0.329167
0.333333
0.337500
0.329167
0.316667
0.341667
0.341667
0.333333
0.333333
0.329167
0.320833
0.362500
0.358333
0.341667
0.362500
0.341667
0.366667
0.350000
0.333333
0.345833
0.337500
0.320833
0.325000
0.320833
0.325000
0.333333
0.337500
0.350000
0.341667
0.333333
0.329167
0.308333
0.320833
0.379167
0.358333
0.345833
0.341667
0.333333
0.358333
0.350000
0.350000
0.341667
0.345833
0.341667
0.337500
0.345833
0.337500
0.337500
0.337500
0.337500
0.329167
0.350000
0.362500
0.337500
0.345833
0.354167
0.358333
0.362500
0.337500
0.325000
0.341667
0.341667
0.333333
0.337500
0.333333
0.341667
0.337500
0.341667
0.337500
0.333333
0.337500
0.562500
0.366667
0.320833
0.362500
0.325000
0.308333
0.329167
0.312500
0.304167
0.316667
0.304167
0.325000
0.354167
0.337500
0.354167
0.354167
0.341667
0.354167
0.341667
0.345833
0.333333
0.358333
0.316667
0.333333
0.329167
0.341667
0.345833
0.325000
0.325000
0.400000
0.320833
0.329167
0.358333
0.441667
0.370833
0.345833
0.337500
0.333333
0.329167
0.304167
0.316667
0.383333
0.345833
0.325000
0.341667
0.325000
0.337500
0.312500
0.316667
0.345833
0.345833
0.329167
0.304167
0.300000
0.308333
0.316667
0.329167
0.337500
0.325000
0.312500
0.312500
0.300000
0.320833
0.354167
0.362500
0.337500
0.383333
0.379167
0.325000
0.316667
0.308333
0.304167
0.320833
0.325000
0.308333
0.320833
0.337500
0.320833
0.354167
0.370833
0.350000
0.325000
0.333333
0.304167
0.312500
0.416667
0.354167
0.300000
0.316667
0.358333
0.383333
0.358333
0.587500
0.358333
0.320833
0.304167
0.291667
0.354167
0.362500
0.354167
0.316667
0.304167
0.325000
0.437500
0.333333
0.350000
0.354167
0.329167
0.325000
0.329167
0.404167
0.354167
0.329167
0.358333
0.350000
0.333333
0.325000
0.325000
0.354167
0.350000
0.333333
0.312500
0.320833
0.345833
0.375000
0.429167
0.379167
0.358333
0.350000
0.329167
0.329167
0.350000
0.358333
0.508333
0.416667
0.445833
0.383333
0.350000
0.475000
0.333333
0.295833
0.358333
0.416667
0.337500
0.300000
0.295833
0.304167
0.287500
0.308333
0.308333
0.350000
0.391667
0.445833
0.329167
0.333333
0.358333
0.341667
0.312500
0.337500
0.320833
0.325000
0.316667
0.300000
0.312500
0.300000
0.304167
0.354167
0.445833
0.400000
0.341667
0.320833
0.304167
0.354167
0.408333
0.345833
0.320833
0.329167
0.458333
0.454167
0.345833
0.354167
0.308333
0.300000
0.325000
0.312500
0.312500
0.308333
0.337500
0.383333
0.354167
0.329167
0.337500
0.320833
0.333333
0.375000
0.370833
0.354167
0.308333
0.316667
0.312500
0.300000
0.304167
0.337500
0.329167
0.325000
0.345833
0.333333
0.358333
0.341667
0.316667
0.312500
0.308333
0.316667
0.341667
0.312500
0.416667
0.412500
0.383333
0.350000
0.537500
0.704167
0.362500
0.333333
0.345833
0.366667
0.566667
0.395833
0.350000
0.320833
0.325000
0.337500
0.341667
0.320833
0.312500
0.316667
0.312500
0.354167
0.391667
0.366667
0.341667
0.329167
0.329167
0.345833
0.408333
0.375000
0.337500
0.329167
0.345833
0.320833
0.341667
0.333333
0.312500
0.312500
0.383333
0.366667
0.350000
0.379167
0.337500
0.325000
0.325000
0.383333
0.370833
0.404167
0.341667
0.337500
0.341667
0.350000
0.350000
0.341667
0.370833
0.370833
0.333333
0.312500
0.320833
0.366667
0.362500
0.337500
0.350000
0.316667
0.308333
0.320833
0.325000
0.329167
0.325000
0.341667
0.350000
0.337500
0.333333
0.337500
0.333333
0.329167
0.370833
0.450000
0.354167
0.370833
0.358333
0.366667
0.366667
0.333333
0.312500
0.337500
0.308333
0.350000
0.354167
0.333333
0.345833
0.312500
0.300000
0.404167
0.341667
0.350000
0.350000
0.316667
0.341667
0.362500
0.354167
0.316667
0.329167
0.354167
0.337500
0.358333
0.358333
0.379167
2.033333
0.891667
0.870833
1.454167
0.766667
1.425000
0.745833
0.754167
1.291667
0.929167
0.925000
0.725000
1.325000
0.945833
0.895833
0.862500
0.887500
0.741667
0.725000
1.270833
0.837500
0.720833
0.725000
0.750000
1.250000
0.833333
0.758333
0.729167
0.720833
0.733333
1.254167
0.854167
0.733333
0.729167
0.725000
0.725000
1.241667
0.812500
0.808333
0.795833
0.754167
0.762500
0.750000
1.275000
0.941667
0.941667
0.912500
0.912500
0.883333
0.895833
0.879167
0.879167
0.858333
0.854167
0.804167
0.866667
0.866667
0.875000
0.866667
0.837500
0.454167
0.570833
0.475000
0.395833
0.475000
0.616667
0.620833
0.579167
0.600000
0.616667
0.600000
0.575000
0.458333
0.420833
0.362500
0.329167
1.466667
0.758333
0.720833
0.587500
0.616667
0.570833
0.583333
1.204167
0.758333
1.791667
0.762500
0.641667
0.629167
0.675000
0.641667
0.654167
1.525000
0.770833
0.479167
0.358333
0.320833
0.333333
0.325000
0.316667
0.370833
0.350000
0.345833
0.341667
0.316667
0.308333
0.329167
0.362500
0.375000
0.345833
0.316667
0.316667
0.312500
0.329167
0.337500
0.341667
0.541667
0.375000
0.475000
0.425000
0.341667
0.304167
0.358333
0.358333
0.433333
0.362500
0.320833
0.350000
0.358333
0.329167
0.491667
0.370833
0.333333
0.320833
0.308333
0.329167
0.325000
0.379167
0.366667
0.337500
0.325000
0.370833
0.354167
0.333333
0.308333
0.345833
0.358333
0.329167
0.341667
0.354167
0.345833
0.333333
0.325000
0.312500
0.312500
0.312500
0.341667
0.325000
0.404167
0.375000
0.341667
0.325000
0.304167
0.316667
0.395833
0.354167
0.412500
0.358333
0.333333
0.325000
0.395833
0.337500
0.425000
0.345833
0.308333
0.345833
0.325000
0.329167
0.350000
0.545833
0.358333
0.325000
0.337500
0.316667
0.308333
0.329167
0.333333
0.329167
0.337500
0.329167
0.316667
0.350000
0.345833
0.333333
0.320833
0.341667
0.383333
0.416667
0.529167
0.516667
0.425000
0.345833
0.312500
0.300000
0.350000
0.366667
0.354167
0.329167
0.291667
0.308333
0.358333
0.358333
0.345833
0.345833
0.341667
0.312500
0.295833
0.316667
0.329167
0.358333
0.312500
0.333333
0.350000
0.333333
0.354167
0.354167
0.329167
0.304167
0.545833
0.525000
0.345833
0.304167
0.325000
0.333333
0.316667
0.295833
0.312500
0.329167
0.300000
0.300000
0.308333
0.329167
0.370833
0.425000
0.375000
0.383333
0.533333
0.354167
0.279167
0.308333
0.320833
0.333333
0.354167
0.308333
0.291667
0.333333
0.337500
0.387500
0.354167
0.341667
0.337500
0.320833
0.341667
0.400000
0.366667
0.337500
0.325000
0.329167
0.325000
0.316667
0.312500
0.320833
0.337500
0.362500
0.362500
0.350000
0.333333
0.337500
0.337500
0.333333
0.341667
0.337500
0.341667
0.329167
0.345833
0.341667
0.345833
0.333333
0.341667
0.337500
0.341667
0.329167
0.341667
0.341667
0.320833
0.333333
0.350000
0.341667
0.345833
0.341667
0.333333
0.325000
0.329167
0.345833
0.354167
0.341667
0.350000
0.345833
0.345833
0.358333
0.341667
0.350000
0.337500
0.316667
0.329167
0.329167
0.329167
0.358333
0.350000
0.325000
0.320833
0.366667
0.345833
0.333333
0.337500
0.341667
0.341667
0.341667
0.341667
0.320833
0.337500
0.345833
0.341667
0.350000
0.341667
0.337500
0.320833
0.337500
0.345833
0.362500
0.370833
0.358333
0.375000
0.341667
0.333333
0.333333
0.345833
0.375000
0.345833
0.320833
0.320833
0.354167
0.358333
0.312500
0.316667
0.345833
0.345833
0.345833
0.337500
0.337500
0.337500
0.333333
0.329167
0.316667
0.337500
0.345833
0.345833
0.329167
0.350000
0.325000
0.329167
0.333333
0.333333
0.341667
0.337500
0.345833
0.341667
0.341667
0.345833
0.308333
0.304167
0.375000
0.350000
0.333333
0.341667
0.325000
0.329167
0.345833
0.341667
0.341667
0.341667
0.354167
0.350000
0.329167
0.325000
0.350000
0.345833
0.350000
0.387500
0.350000
0.354167
0.345833
0.329167
0.312500
0.329167
0.333333
0.350000
0.337500
0.329167
0.341667
0.350000
0.345833
0.341667
0.329167
0.325000
0.325000
0.341667
0.358333
0.337500
0.337500
0.341667
0.333333
0.337500
0.337500
0.333333
0.329167
0.354167
0.341667
0.358333
0.379167
0.350000
0.358333
0.345833
0.329167
0.312500
0.354167
0.333333
0.329167
0.345833
0.350000
0.345833
0.341667
0.345833
0.316667
0.329167
0.366667
0.350000
0.325000
0.325000
0.341667
0.333333
0.370833
0.383333
0.345833
0.329167
0.329167
0.370833
0.358333
0.366667
0.362500
0.329167
0.329167
0.358333
0.370833
0.370833
0.404167
0.354167
0.341667
0.329167
0.329167
0.333333
0.329167
0.337500
0.345833
0.333333
0.379167
0.354167
0.341667
0.354167
0.337500
0.312500
0.329167
0.350000
0.337500
0.329167
0.333333
0.345833
0.333333
0.333333
0.316667
0.333333
0.337500
0.333333
0.329167
0.316667
0.412500
0.395833
0.316667
0.333333
0.341667
0.316667
0.329167
0.341667
0.337500
0.341667
0.341667
0.308333
0.304167
0.354167
0.350000
0.341667
0.345833
0.312500
0.325000
0.337500
0.337500
0.350000
0.341667
0.375000
0.358333
0.358333
0.362500
0.366667
0.412500
0.387500
0.362500
0.304167
0.304167
0.375000
0.366667
0.425000
0.520833
0.350000
0.316667
0.304167
0.312500
0.320833
0.304167
0.300000
