0.520833
0.520833
0.520833
0.516667
0.520833
0.520833
0.520833
0.520833
0.520833
0.516667
0.545833
0.504167
0.525000
0.516667
0.520833
0.537500
0.508333
0.520833
0.516667
0.520833
0.541667
0.508333
0.516667
0.525000
0.520833
0.520833
0.541667
0.508333
0.516667
0.520833
0.525000
0.516667
0.545833
0.504167
0.525000
0.516667
0.520833
0.520833
0.516667
0.520833
0.520833
0.520833
0.541667
0.504167
0.516667
0.525000
0.516667
0.520833
0.520833
0.516667
0.516667
0.525000
0.520833
0.516667
0.520833
0.516667
0.516667
0.520833
0.520833
0.520833
0.525000
0.512500
0.520833
0.516667
0.520833
0.516667
0.520833
0.516667
0.516667
0.520833
0.516667
0.516667
0.516667
0.520833
0.516667
0.516667
0.520833
0.512500
0.520833
0.516667
0.520833
0.512500
0.541667
0.504167
0.520833
0.516667
0.516667
0.541667
0.504167
0.520833
0.516667
0.520833
0.516667
0.516667
0.516667
0.520833
0.516667
0.520833
0.516667
0.520833
0.516667
0.520833
0.516667
0.520833
0.516667
0.516667
0.516667
0.525000
0.516667
0.516667
0.516667
0.520833
0.516667
0.520833
0.516667
0.516667
0.520833
0.516667
0.520833
0.516667
0.520833
0.516667
0.516667
0.516667
0.520833
0.520833
0.516667
0.516667
0.516667
0.516667
0.516667
0.520833
0.516667
0.520833
0.541667
0.500000
0.520833
0.516667
0.516667
0.520833
0.516667
0.516667
0.520833
0.516667
0.516667
0.520833
0.512500
0.516667
0.520833
0.520833
0.516667
0.516667
0.516667
0.516667
0.525000
0.516667
0.516667
0.520833
0.516667
0.516667
0.516667
0.520833
0.516667
0.520833
0.516667
0.516667
0.520833
0.520833
0.516667
0.520833
0.512500
0.520833
0.520833
0.520833
0.516667
0.516667
0.516667
0.516667
0.520833
0.520833
0.516667
0.520833
0.512500
0.516667
0.520833
0.520833
0.516667
0.516667
0.520833
0.516667
0.516667
0.520833
0.516667
0.520833
0.520833
0.520833
0.516667
0.520833
0.516667
0.520833
0.516667
0.520833
0.520833
0.516667
0.520833
0.516667
0.520833
0.516667
0.520833
0.516667
0.516667
0.520833
0.516667
0.516667
0.516667
0.520833
0.516667
0.516667
0.520833
0.516667
0.516667
0.520833
0.516667
0.520833
0.516667
0.520833
0.516667
0.545833
0.504167
0.516667
0.516667
0.520833
0.516667
0.516667
0.520833
0.520833
0.516667
0.520833
0.516667
0.520833
0.516667
0.516667
0.520833
0.520833
0.516667
0.520833
0.516667
0.516667
0.520833
0.516667
0.516667
0.520833
0.520833
0.516667
0.516667
0.520833
0.516667
0.545833
0.504167
0.525000
0.516667
0.516667
0.545833
0.500000
0.520833
0.520833
0.520833
0.520833
0.545833
0.500000
0.516667
0.520833
0.520833
0.520833
0.520833
0.520833
0.516667
0.520833
0.520833
0.520833
0.516667
0.516667
0.520833
0.516667
0.520833
0.520833
0.545833
0.504167
0.520833
0.516667
0.583333
0.454167
0.516667
0.516667
0.525000
0.520833
0.525000
0.512500
0.516667
0.520833
0.537500
0.504167
0.520833
0.516667
0.520833
0.520833
0.525000
0.516667
0.520833
0.520833
0.520833
0.520833
0.520833
0.520833
0.520833
0.520833
0.525000
0.520833
0.520833
0.520833
0.520833
0.520833
0.520833
0.520833
0.516667
0.516667
0.525000
0.516667
0.516667
0.516667
0.525000
0.516667
0.520833
0.512500
0.550000
0.504167
0.516667
0.512500
0.520833
0.512500
0.520833
0.512500
0.541667
0.458333
0.558333
0.516667
0.537500
0.504167
0.516667
0.512500
0.516667
0.533333
0.508333
0.516667
0.520833
0.516667
0.512500
0.516667
0.516667
0.537500
0.504167
0.537500
0.500000
0.537500
0.504167
0.512500
0.512500
0.537500
0.504167
0.533333
0.504167
0.516667
0.537500
0.504167
0.512500
0.516667
0.541667
0.504167
0.533333
0.504167
0.512500
0.537500
0.504167
0.512500
0.541667
0.504167
0.537500
0.504167
0.512500
0.512500
0.520833
0.512500
0.533333
0.504167
0.512500
0.537500
0.504167
0.533333
0.504167
0.512500
0.520833
0.512500
0.525000
0.512500
0.512500
0.520833
0.516667
0.516667
0.512500
0.516667
0.516667
0.516667
0.537500
0.500000
0.516667
0.516667
0.516667
0.512500
0.541667
0.504167
0.512500
0.516667
0.512500
0.541667
0.500000
0.516667
0.516667
0.512500
0.541667
0.500000
0.512500
0.516667
0.516667
0.516667
0.545833
0.500000
0.516667
0.516667
0.516667
0.512500
0.516667
0.520833
0.516667
0.541667
0.500000
0.512500
0.545833
0.500000
0.541667
0.504167
0.512500
0.520833
0.520833
0.545833
0.504167
0.512500
0.520833
0.545833
0.500000
0.516667
0.520833
0.512500
0.516667
0.516667
0.516667
0.516667
0.516667
0.512500
0.516667
0.516667
0.516667
0.516667
0.516667
0.512500
0.516667
0.512500
0.520833
0.512500
0.516667
0.512500
0.516667
0.516667
0.516667
0.516667
0.516667
0.512500
0.512500
0.516667
0.512500
0.512500
0.512500
0.516667
0.512500
0.516667
0.508333
0.512500
0.516667
0.516667
0.541667
0.495833
0.512500
0.541667
0.500000
0.512500
0.516667
0.512500
0.516667
0.516667
0.516667
0.516667
0.512500
0.516667
0.512500
0.512500
0.512500
0.512500
0.516667
0.537500
0.495833
0.512500
0.516667
0.512500
0.537500
0.500000
0.512500
0.516667
0.512500
0.512500
0.512500
0.516667
0.512500
0.512500
0.508333
0.537500
0.500000
0.512500
0.508333
0.537500
0.500000
0.512500
0.512500
0.508333
0.512500
0.508333
0.516667
0.512500
0.512500
0.516667
0.512500
0.512500
0.512500
0.512500
0.508333
0.516667
0.512500
0.508333
0.508333
0.512500
0.512500
0.512500
0.533333
0.495833
0.512500
0.512500
0.512500
0.508333
0.508333
0.516667
0.508333
0.512500
0.508333
0.508333
0.512500
0.512500
0.504167
0.508333
0.512500
0.512500
0.508333
0.512500
0.508333
0.512500
0.508333
0.512500
0.508333
0.508333
0.508333
0.516667
0.508333
0.512500
0.508333
0.508333
0.512500
0.508333
0.508333
0.512500
0.508333
0.516667
0.508333
0.512500
0.508333
0.512500
0.508333
0.512500
0.508333
0.508333
0.512500
0.512500
0.512500
0.512500
0.504167
0.508333
0.508333
0.512500
0.508333
0.512500
0.508333
0.508333
0.512500
0.512500
0.508333
0.533333
0.495833
0.512500
0.512500
0.508333
0.512500
0.508333
0.512500
0.512500
0.508333
0.512500
0.512500
0.508333
0.512500
0.508333
0.512500
0.508333
0.508333
0.508333
0.512500
0.508333
0.512500
0.508333
0.508333
0.508333
0.512500
0.508333
0.508333
0.508333
0.512500
0.512500
0.508333
0.508333
0.512500
0.512500
0.508333
0.508333
0.516667
0.508333
0.512500
0.508333
0.508333
0.504167
0.516667
0.508333
0.508333
0.508333
0.508333
0.512500
0.508333
0.512500
0.508333
0.512500
0.512500
0.508333
0.512500
0.512500
0.508333
0.512500
0.508333
0.508333
0.508333
0.508333
0.512500
0.512500
0.508333
0.508333
0.508333
0.508333
0.512500
0.508333
0.508333
0.508333
0.508333
0.508333
0.512500
0.508333
0.508333
0.512500
0.512500
0.508333
0.512500
0.504167
0.508333
0.512500
0.512500
0.508333
0.512500
0.508333
0.508333
0.512500
0.512500
0.508333
0.508333
0.512500
0.508333
0.512500
0.512500
0.508333
0.508333
0.508333
0.512500
0.512500
0.512500
0.508333
0.508333
0.508333
0.516667
0.512500
0.512500
0.512500
0.508333
0.512500
0.516667
0.508333
0.512500
0.512500
0.512500
0.512500
0.512500
0.512500
0.508333
0.512500
0.516667
0.512500
0.512500
0.512500
0.512500
0.512500
0.516667
0.512500
0.512500
0.508333
0.641667
0.379167
0.512500
0.508333
0.512500
0.512500
0.512500
0.508333
0.508333
0.508333
0.512500
0.512500
0.512500
0.508333
0.516667
0.512500
0.512500
0.512500
0.512500
0.512500
0.512500
0.512500
0.508333
0.533333
0.500000
0.529167
0.500000
0.529167
0.504167
0.529167
0.504167
0.537500
0.504167
0.516667
0.516667
0.512500
0.516667
0.508333
0.512500
0.512500
0.512500
0.508333
0.516667
0.512500
0.512500
0.512500
0.508333
0.512500
0.512500
0.512500
0.512500
0.512500
0.512500
0.512500
0.512500
0.512500
0.512500
0.512500
0.508333
0.512500
0.512500
0.512500
0.512500
0.512500
0.512500
0.516667
0.512500
0.512500
0.516667
0.508333
0.516667
0.516667
0.512500
0.512500
0.508333
0.516667
0.512500
0.516667
0.516667
0.512500
0.516667
0.512500
0.512500
0.512500
0.512500
0.516667
0.516667
0.512500
0.516667
0.516667
0.508333
0.520833
0.516667
0.516667
0.516667
0.508333
0.520833
0.608333
0.583333
0.175000
0.183333
0.516667
0.516667
0.279167
0.245833
0.508333
0.520833
0.512500
0.520833
0.516667
0.516667
0.516667
0.516667
0.512500
0.516667
0.512500
0.450000
0.583333
0.516667
0.516667
0.516667
0.512500
0.520833
0.512500
0.516667
0.516667
0.512500
0.516667
0.516667
0.516667
0.512500
0.516667
0.516667
0.512500
0.516667
1.033333
0.512500
0.512500
0.516667
0.516667
0.516667
0.512500
0.516667
0.516667
0.516667
0.520833
0.516667
0.516667
0.512500
0.516667
0.512500
0.541667
0.504167
0.308333
0.229167
0.504167
0.520833
0.520833
0.516667
0.516667
0.520833
0.512500
0.516667
0.516667
0.516667
0.516667
0.516667
0.516667
0.516667
0.516667
0.516667
0.508333
0.520833
0.520833
0.516667
0.516667
0.516667
0.516667
0.520833
0.520833
0.516667
0.520833
0.516667
0.520833
0.516667
0.516667
0.520833
0.512500
0.520833
0.516667
0.516667
0.520833
0.516667
0.516667
0.520833
0.516667
0.520833
0.512500
0.520833
0.520833
0.520833
0.520833
0.516667
0.516667
0.520833
0.520833
0.520833
0.516667
0.516667
0.520833
0.520833
0.520833
0.516667
0.516667
0.520833
0.516667
0.520833
0.520833
0.520833
0.520833
0.516667
0.520833
0.520833
0.520833
0.520833
0.520833
0.516667
0.520833
0.520833
0.520833
0.520833
0.516667
0.525000
0.520833
0.520833
0.516667
0.520833
0.516667
0.520833
0.520833
0.520833
0.520833
0.516667
0.516667
0.520833
0.520833
0.520833
0.516667
0.520833
0.516667
0.520833
0.520833
0.520833
0.516667
0.516667
0.520833
0.520833
0.520833
0.520833
0.516667
0.520833
0.520833
0.525000
0.520833
0.520833
0.520833
0.520833
0.520833
0.520833
0.520833
0.525000
0.520833
0.516667
0.520833
0.525000
0.520833
0.520833
0.520833
0.520833
0.520833
0.525000
0.520833
0.520833
0.520833
0.520833
0.516667
0.525000
0.520833
0.520833
0.520833
0.520833
0.520833
0.525000
0.516667
0.525000
0.520833
0.516667
0.525000
0.520833
0.525000
0.520833
0.520833
0.520833
0.520833
0.525000
0.520833
0.525000
0.516667
0.529167
0.520833
0.525000
0.525000
0.516667
0.525000
0.525000
0.520833
0.525000
0.520833
0.525000
0.525000
0.520833
0.525000
0.520833
0.520833
0.525000
0.525000
0.520833
0.525000
0.520833
0.525000
0.525000
0.520833
0.525000
0.520833
0.525000
0.525000
0.525000
0.525000
0.520833
0.525000
0.525000
0.520833
0.516667
0.525000
0.520833
0.520833
0.516667
0.525000
0.520833
0.525000
0.520833
0.516667
0.525000
0.525000
0.520833
0.516667
0.520833
0.525000
0.520833
0.525000
0.520833
0.520833
0.520833
0.525000
0.525000
0.520833
0.520833
0.520833
0.525000
0.525000
0.520833
0.520833
0.525000
0.520833
0.520833
0.520833
0.520833
0.520833
0.520833
0.520833
0.520833
0.516667
0.520833
0.520833
0.520833
0.520833
0.520833
0.520833
0.525000
0.520833
0.520833
0.516667
0.520833
0.520833
0.516667
0.520833
0.520833
0.520833
0.516667
0.520833
0.520833
0.520833
0.520833
0.520833
0.516667
0.520833
0.520833
0.520833
0.516667
0.520833
0.516667
0.520833
0.520833
0.516667
0.520833
0.516667
0.520833
0.516667
0.520833
0.516667
0.520833
0.520833
0.520833
0.516667
0.520833
0.516667
0.520833
0.516667
0.520833
0.516667
0.520833
0.520833
0.516667
0.520833
0.516667
0.516667
0.516667
0.520833
0.520833
0.516667
0.520833
0.516667
0.516667
0.520833
0.520833
0.516667
0.520833
0.520833
0.520833
0.516667
0.520833
0.516667
0.520833
0.520833
