0.508333
0.420833
0.345833
0.808333
0.433333
0.345833
0.633333
0.412500
0.341667
0.658333
0.412500
0.333333
0.629167
0.604167
0.358333
0.404167
0.416667
0.354167
0.508333
0.362500
0.316667
0.395833
0.391667
0.512500
0.845833
0.445833
1.000000
0.858333
0.437500
0.333333
0.600000
0.408333
0.341667
0.512500
0.795833
0.429167
0.341667
0.587500
0.412500
0.350000
0.583333
0.412500
0.341667
0.545833
0.420833
0.345833
0.645833
0.429167
0.333333
0.541667
0.420833
0.354167
0.725000
0.670833
0.362500
0.650000
0.404167
0.366667
0.500000
0.358333
0.470833
0.562500
0.391667
0.408333
0.454167
0.445833
0.441667
0.504167
0.341667
0.450000
0.487500
0.458333
0.487500
0.466667
0.441667
0.445833
0.458333
0.491667
0.483333
0.458333
0.429167
0.508333
0.420833
0.470833
0.533333
0.429167
0.670833
0.712500
1.037500
0.908333
0.883333
0.420833
0.362500
0.591667
0.354167
0.629167
0.400000
0.362500
0.495833
0.733333
0.608333
0.354167
0.491667
0.533333
0.404167
0.420833
0.916667
0.433333
0.454167
0.383333
0.445833
0.395833
0.433333
0.520833
0.395833
0.433333
0.404167
0.458333
0.441667
0.429167
0.487500
0.462500
0.458333
0.458333
0.483333
0.487500
0.479167
0.475000
0.475000
0.450000
0.429167
0.454167
0.454167
0.470833
0.458333
0.441667
0.458333
0.450000
0.454167
0.466667
0.500000
0.483333
0.462500
0.450000
0.445833
0.470833
0.458333
0.420833
0.450000
0.458333
0.487500
0.358333
0.458333
0.466667
0.433333
0.462500
0.483333
0.879167
0.837500
0.616667
0.354167
1.075000
0.704167
0.358333
1.012500
0.737500
0.412500
0.662500
0.354167
1.029167
0.433333
0.341667
0.604167
0.675000
0.354167
0.487500
0.587500
0.391667
0.504167
0.758333
0.604167
0.375000
0.995833
0.429167
0.354167
0.383333
0.550000
0.925000
0.587500
0.370833
1.070833
0.433333
1.008333
0.445833
1.008333
0.441667
0.987500
0.445833
0.350000
1.187500
0.441667
0.333333
0.725000
0.833333
0.450000
0.350000
0.945833
0.875000
0.437500
0.341667
0.545833
0.387500
0.308333
0.445833
0.462500
0.329167
0.420833
0.437500
0.450000
0.433333
0.329167
0.683333
0.662500
0.929167
0.879167
0.437500
0.337500
0.375000
0.462500
0.500000
0.379167
0.770833
0.641667
0.420833
0.358333
0.366667
0.454167
0.320833
0.458333
0.408333
0.433333
0.520833
0.500000
0.458333
0.454167
0.462500
0.345833
0.312500
0.491667
0.325000
0.554167
0.425000
0.462500
0.466667
0.433333
0.454167
0.429167
0.458333
0.458333
0.454167
0.404167
0.445833
0.408333
0.462500
0.441667
0.458333
0.429167
0.425000
0.470833
0.487500
0.466667
0.454167
0.479167
0.470833
0.454167
0.516667
0.479167
0.454167
0.483333
0.479167
0.475000
0.483333
0.520833
0.479167
0.508333
0.425000
1.062500
0.704167
0.791667
0.954167
0.904167
0.875000
0.425000
0.366667
0.583333
0.345833
0.812500
0.975000
0.433333
0.366667
0.483333
1.075000
0.437500
1.062500
0.450000
1.033333
0.445833
1.012500
0.445833
0.354167
0.554167
1.041667
0.450000
0.987500
0.433333
0.975000
0.437500
0.958333
0.437500
0.354167
0.562500
0.983333
0.445833
0.350000
1.070833
0.450000
0.341667
0.375000
0.766667
0.933333
0.437500
0.962500
0.441667
0.954167
0.445833
0.350000
0.975000
0.429167
0.345833
0.291667
0.558333
0.408333
0.329167
0.562500
0.420833
0.933333
0.433333
0.950000
0.445833
0.954167
0.429167
0.954167
0.437500
0.337500
0.275000
0.729167
0.425000
0.770833
0.412500
0.325000
0.566667
0.379167
0.333333
0.616667
0.958333
0.441667
0.962500
0.437500
0.958333
0.445833
0.341667
0.520833
0.420833
0.337500
0.562500
0.408333
0.337500
0.562500
0.429167
0.337500
0.550000
0.420833
0.354167
0.525000
0.420833
0.350000
0.883333
0.437500
0.950000
0.437500
0.341667
0.537500
0.425000
0.345833
0.566667
0.975000
0.441667
0.345833
0.562500
0.433333
0.333333
0.958333
0.441667
0.341667
0.616667
0.429167
0.337500
0.329167
0.425000
0.712500
0.395833
0.633333
0.358333
0.441667
0.337500
0.550000
0.425000
0.345833
0.266667
0.879167
0.504167
0.445833
0.345833
0.537500
0.425000
0.620833
0.408333
0.354167
0.533333
0.683333
0.412500
0.337500
0.595833
0.420833
0.345833
0.620833
0.433333
0.345833
0.558333
0.420833
0.337500
0.412500
0.279167
0.437500
0.333333
0.583333
0.008333
0.420833
0.341667
0.316667
0.408333
0.404167
0.341667
0.195833
0.391667
0.429167
0.337500
0.720833
0.420833
0.345833
0.566667
0.420833
0.345833
0.725000
0.412500
0.341667
0.579167
0.425000
0.341667
0.679167
0.733333
0.412500
0.329167
0.445833
0.470833
0.470833
0.495833
0.437500
0.475000
0.479167
0.475000
0.450000
0.445833
0.433333
0.404167
0.454167
0.508333
0.512500
0.525000
0.687500
0.379167
1.087500
0.708333
0.241667
0.883333
0.275000
0.575000
0.779167
0.387500
0.591667
0.750000
0.470833
0.500000
0.341667
0.350000
0.604167
0.370833
0.741667
0.670833
0.591667
0.479167
0.562500
0.937500
0.725000
0.391667
0.445833
0.533333
0.562500
0.316667
0.304167
0.166667
0.504167
0.512500
0.762500
0.362500
0.462500
0.325000
0.541667
0.129167
0.416667
0.762500
0.825000
0.666667
0.341667
0.529167
0.766667
0.508333
0.162500
0.654167
0.562500
0.358333
0.370833
0.475000
0.325000
0.441667
0.416667
0.454167
0.470833
0.450000
0.450000
0.483333
0.458333
0.920833
0.479167
0.466667
0.462500
0.450000
0.462500
0.500000
0.475000
0.454167
0.445833
0.445833
0.462500
0.450000
0.466667
0.929167
0.512500
0.479167
0.466667
0.487500
0.466667
0.487500
0.483333
0.483333
0.470833
0.458333
0.441667
0.454167
0.500000
0.466667
0.462500
0.483333
0.458333
0.437500
0.466667
0.508333
1.041667
0.891667
0.950000
0.895833
0.441667
0.350000
0.550000
1.091667
0.458333
0.337500
0.620833
0.445833
0.341667
0.591667
0.429167
0.350000
0.500000
0.354167
0.483333
0.858333
0.354167
0.333333
0.341667
0.512500
0.475000
0.529167
0.354167
1.129167
1.016667
0.908333
0.454167
1.016667
0.445833
1.012500
0.454167
0.341667
0.545833
0.408333
0.979167
0.450000
0.962500
0.450000
0.341667
0.545833
0.362500
0.670833
0.366667
0.512500
0.387500
0.350000
0.875000
0.420833
0.737500
0.441667
0.975000
0.450000
0.341667
0.562500
0.420833
0.345833
0.579167
0.425000
0.345833
0.537500
0.420833
0.362500
0.416667
0.375000
0.354167
0.904167
0.433333
0.670833
0.404167
0.666667
0.408333
0.358333
0.391667
0.370833
0.954167
0.450000
0.345833
0.283333
0.345833
0.925000
0.458333
0.337500
0.570833
0.425000
0.358333
0.375000
0.500000
0.770833
0.433333
0.333333
0.441667
0.466667
0.395833
0.358333
0.645833
0.412500
0.629167
0.412500
0.362500
0.637500
0.420833
0.329167
0.695833
0.425000
0.358333
0.645833
0.425000
0.337500
0.433333
0.395833
0.741667
0.412500
0.341667
0.937500
0.445833
0.341667
1.033333
0.433333
0.341667
0.566667
0.420833
0.337500
1.087500
0.450000
0.345833
0.550000
0.420833
0.350000
0.512500
0.833333
0.420833
0.337500
0.579167
0.412500
0.341667
0.708333
0.416667
0.337500
0.579167
0.433333
0.350000
0.670833
0.620833
0.387500
0.670833
0.404167
0.341667
0.437500
0.533333
0.387500
0.320833
0.958333
0.683333
0.408333
0.350000
0.391667
0.466667
0.516667
0.429167
0.366667
0.429167
0.425000
0.387500
0.445833
0.487500
0.395833
0.479167
0.825000
0.650000
0.429167
0.354167
0.470833
1.012500
0.575000
0.395833
0.608333
0.408333
0.358333
0.470833
0.362500
0.933333
0.650000
0.404167
0.354167
0.475000
0.354167
0.316667
0.787500
0.979167
0.454167
0.350000
0.583333
0.425000
0.345833
0.616667
0.433333
0.337500
0.612500
0.425000
0.345833
0.587500
0.408333
0.366667
0.508333
0.804167
0.600000
0.362500
1.020833
0.433333
0.350000
0.525000
0.425000
0.358333
0.375000
0.462500
0.320833
0.437500
0.429167
0.729167
0.966667
0.875000
0.820833
0.441667
0.979167
0.445833
0.345833
0.520833
0.420833
0.358333
0.504167
0.354167
1.166667
0.454167
0.341667
0.612500
0.429167
0.333333
0.550000
0.425000
0.345833
0.670833
0.433333
0.337500
0.562500
0.429167
0.354167
0.370833
0.470833
0.429167
0.458333
0.470833
0.504167
0.391667
0.437500
0.333333
0.441667
0.450000
0.475000
0.466667
0.450000
0.341667
0.587500
0.445833
0.525000
0.450000
0.487500
0.454167
0.500000
0.462500
0.466667
0.445833
0.454167
0.437500
0.883333
1.070833
0.887500
0.845833
0.408333
1.075000
0.441667
0.362500
0.879167
0.437500
0.358333
0.516667
0.420833
0.358333
0.570833
0.629167
0.391667
0.325000
0.283333
0.445833
0.462500
0.429167
0.433333
0.837500
0.833333
0.804167
0.775000
0.429167
0.954167
0.370833
0.083333
0.591667
0.466667
0.525000
0.370833
0.954167
0.433333
0.920833
0.454167
0.350000
0.270833
0.341667
0.316667
0.900000
0.912500
0.445833
0.829167
0.116667
0.433333
0.341667
0.508333
0.433333
0.337500
0.550000
0.366667
0.295833
0.341667
0.758333
0.800000
0.312500
0.825000
0.433333
0.966667
0.441667
0.333333
0.275000
0.370833
0.908333
0.450000
0.341667
0.366667
0.320833
0.304167
0.341667
0.420833
0.479167
0.454167
0.470833
0.454167
0.533333
0.450000
0.483333
0.433333
0.491667
0.483333
0.462500
0.450000
0.425000
0.454167
0.475000
0.466667
0.479167
0.445833
0.437500
0.883333
0.462500
0.462500
0.437500
0.462500
0.462500
0.462500
0.450000
0.250000
0.245833
0.204167
0.262500
0.462500
0.441667
0.437500
0.200000
0.266667
0.458333
0.437500
0.445833
0.416667
0.454167
0.462500
0.458333
0.425000
0.441667
0.679167
0.641667
0.454167
0.445833
0.458333
0.437500
0.433333
0.912500
0.904167
0.879167
0.450000
0.437500
0.991667
0.470833
0.479167
0.479167
0.504167
0.458333
0.462500
0.470833
0.470833
0.491667
0.479167
0.462500
0.470833
0.475000
0.475000
0.470833
0.483333
0.504167
0.475000
0.479167
0.466667
0.500000
0.500000
0.466667
0.470833
0.441667
0.466667
0.608333
0.300000
0.458333
0.475000
0.487500
0.491667
0.487500
0.487500
0.470833
0.508333
0.495833
0.487500
0.479167
0.479167
0.491667
0.487500
0.500000
0.479167
0.470833
0.475000
0.458333
0.462500
0.475000
0.383333
0.462500
0.454167
0.429167
0.450000
0.462500
0.454167
0.445833
0.441667
0.416667
0.483333
0.475000
0.491667
0.504167
0.495833
0.487500
0.487500
0.487500
0.483333
0.500000
0.491667
0.483333
0.479167
0.479167
0.479167
0.483333
0.970833
0.500000
0.479167
0.479167
0.479167
0.479167
0.962500
0.491667
0.495833
0.479167
0.470833
0.491667
0.475000
0.475000
0.508333
0.483333
0.483333
0.479167
0.462500
0.500000
0.508333
0.483333
0.208333
0.266667
0.479167
0.366667
0.450000
0.270833
0.658333
0.366667
0.329167
0.470833
0.479167
0.466667
0.504167
0.508333
0.233333
0.245833
0.475000
0.475000
0.487500
0.458333
0.270833
0.233333
0.491667
0.495833
0.475000
0.145833
0.820833
0.470833
0.500000
0.500000
0.479167
0.487500
0.479167
0.483333
0.479167
0.504167
0.487500
0.483333
0.479167
0.483333
0.483333
0.466667
0.500000
0.500000
0.483333
0.479167
0.483333
0.462500
0.500000
0.508333
0.483333
0.479167
0.483333
0.479167
0.479167
0.504167
0.487500
0.479167
0.483333
0.483333
0.804167
0.050000
0.462500
0.625000
0.158333
0.320833
0.475000
0.475000
0.508333
0.604167
0.337500
0.491667
0.491667
0.475000
0.479167
0.950000
0.512500
0.487500
0.475000
0.479167
0.454167
0.495833
0.504167
0.487500
0.950000
0.466667
0.475000
0.433333
0.666667
0.737500
0.479167
0.512500
0.491667
0.475000
0.487500
0.470833
0.487500
0.483333
0.487500
0.483333
0.475000
0.479167
0.316667
0.204167
0.500000
0.483333
0.445833
0.045833
0.570833
0.404167
0.462500
0.250000
0.116667
0.633333
0.483333
0.475000
0.495833
0.500000
0.479167
0.487500
0.491667
0.220833
0.712500
0.516667
0.508333
0.483333
0.483333
0.483333
0.466667
0.433333
0.475000
0.479167
0.466667
0.500000
0.491667
0.495833
0.487500
0.483333
0.483333
0.487500
0.479167
0.504167
0.487500
