0.725000
1.262500
0.870833
0.729167
0.754167
0.745833
0.741667
0.741667
0.733333
0.729167
1.233333
0.900000
0.750000
0.766667
0.758333
0.750000
0.737500
0.737500
0.725000
0.737500
1.250000
0.862500
0.733333
0.729167
0.720833
0.725000
0.883333
1.070833
0.987500
0.920833
0.479167
0.575000
0.800000
0.625000
0.637500
0.675000
0.708333
0.654167
1.775000
1.808333
0.783333
0.770833
1.533333
0.783333
0.770833
0.483333
1.287500
0.775000
0.629167
0.633333
0.679167
0.408333
0.362500
0.337500
0.350000
0.450000
0.341667
0.291667
0.304167
0.333333
0.341667
0.358333
0.345833
0.333333
0.345833
0.333333
1.683333
0.512500
0.354167
0.550000
0.295833
0.333333
0.304167
0.308333
1.125000
0.750000
1.566667
0.754167
0.812500
0.854167
0.420833
1.591667
0.758333
0.516667
1.237500
0.737500
0.587500
0.391667
0.341667
0.533333
1.216667
0.725000
0.570833
0.458333
1.462500
0.779167
1.829167
0.783333
0.662500
0.591667
0.658333
0.670833
0.408333
1.729167
0.758333
0.833333
1.662500
0.775000
0.804167
0.462500
0.354167
1.300000
0.791667
0.750000
0.729167
0.483333
0.366667
0.304167
0.312500
0.466667
0.379167
0.525000
0.391667
0.358333
0.333333
0.341667
0.350000
0.329167
0.308333
0.329167
0.325000
0.333333
0.333333
0.320833
0.329167
0.325000
0.358333
0.370833
0.337500
0.387500
0.379167
0.329167
0.312500
0.316667
0.337500
0.362500
0.362500
0.375000
0.345833
0.329167
0.337500
0.375000
0.329167
0.341667
0.354167
0.358333
0.345833
0.358333
0.395833
0.358333
0.383333
0.337500
0.333333
0.337500
0.316667
0.320833
0.329167
0.312500
0.325000
0.362500
0.458333
0.354167
0.329167
0.325000
0.366667
0.345833
0.333333
0.345833
0.354167
0.337500
0.333333
0.329167
0.333333
0.341667
0.358333
0.354167
0.395833
0.354167
0.400000
0.370833
0.337500
0.379167
0.366667
0.320833
0.320833
0.337500
0.341667
0.337500
0.350000
0.345833
0.333333
0.379167
0.408333
0.504167
0.350000
0.316667
0.337500
0.354167
0.329167
0.341667
0.383333
0.354167
0.400000
0.333333
0.337500
0.341667
0.350000
0.333333
0.350000
0.350000
0.341667
0.333333
0.333333
0.362500
0.362500
0.354167
0.350000
0.341667
0.358333
0.350000
0.370833
0.366667
0.366667
0.362500
0.325000
0.325000
0.366667
0.391667
0.366667
0.616667
0.375000
0.366667
0.462500
0.350000
0.325000
0.341667
0.337500
0.362500
0.383333
0.350000
0.350000
0.341667
0.337500
0.337500
0.341667
0.345833
0.341667
0.333333
0.362500
0.354167
0.387500
0.358333
0.358333
0.358333
0.341667
0.337500
0.341667
0.337500
0.329167
0.320833
0.345833
0.379167
0.354167
0.341667
0.341667
0.354167
0.341667
0.387500
0.441667
0.379167
0.466667
0.679167
0.341667
0.350000
0.341667
0.354167
0.341667
0.354167
0.345833
0.375000
0.362500
0.433333
0.408333
0.350000
0.308333
0.333333
0.333333
0.345833
0.345833
0.350000
0.329167
0.383333
0.404167
0.337500
0.345833
0.337500
0.354167
0.337500
0.350000
0.325000
0.329167
0.479167
0.558333
0.362500
0.358333
0.362500
0.350000
0.395833
0.375000
0.354167
0.354167
0.337500
0.375000
0.391667
0.579167
0.400000
0.345833
0.320833
0.345833
0.362500
0.333333
0.345833
0.420833
0.391667
0.350000
0.337500
0.300000
0.329167
0.354167
0.345833
0.362500
0.345833
0.358333
0.345833
0.350000
0.366667
0.400000
0.358333
0.337500
0.350000
0.333333
0.383333
0.383333
0.341667
0.350000
0.345833
0.345833
0.345833
0.337500
0.341667
0.341667
0.341667
0.350000
0.350000
0.345833
0.345833
0.383333
0.370833
0.375000
0.375000
0.345833
0.358333
0.358333
0.308333
0.320833
0.370833
0.354167
0.350000
0.354167
0.358333
0.358333
0.329167
0.329167
0.354167
0.362500
0.350000
0.358333
0.329167
0.354167
0.354167
0.408333
0.358333
0.333333
0.366667
0.341667
0.433333
0.420833
0.354167
0.362500
0.416667
0.379167
0.341667
0.345833
0.341667
0.345833
0.345833
0.341667
0.341667
0.354167
0.350000
0.404167
0.391667
0.341667
0.416667
0.391667
0.337500
0.329167
0.333333
0.341667
0.333333
0.320833
0.333333
0.462500
0.520833
0.395833
0.350000
0.333333
0.379167
0.358333
0.345833
0.370833
0.341667
0.341667
0.350000
0.370833
0.350000
0.358333
0.341667
0.400000
0.441667
0.358333
0.341667
0.366667
0.370833
0.370833
0.345833
0.333333
0.333333
0.325000
0.337500
0.341667
0.354167
0.345833
0.341667
0.350000
0.358333
0.350000
0.387500
0.379167
0.337500
0.350000
0.387500
0.358333
0.354167
0.412500
0.600000
0.375000
0.333333
0.445833
0.345833
0.341667
0.375000
0.350000
0.366667
0.358333
0.362500
0.358333
0.395833
0.450000
0.412500
0.604167
0.375000
0.329167
0.387500
0.345833
0.320833
0.320833
0.387500
0.475000
0.391667
0.404167
0.400000
0.358333
0.345833
0.333333
0.379167
0.333333
0.291667
0.312500
0.379167
0.345833
0.329167
0.325000
0.366667
0.341667
0.354167
0.370833
0.358333
0.341667
0.329167
0.345833
0.333333
0.345833
0.337500
0.320833
0.420833
0.358333
0.354167
0.341667
0.329167
0.345833
0.320833
0.337500
0.345833
0.400000
0.383333
0.395833
0.350000
0.333333
0.329167
0.316667
0.333333
0.325000
0.333333
0.433333
0.395833
0.341667
0.333333
0.337500
0.304167
0.312500
0.387500
0.375000
0.354167
0.358333
0.345833
0.387500
0.350000
0.358333
0.362500
0.358333
0.337500
0.341667
0.412500
0.379167
0.550000
0.458333
0.383333
0.341667
0.320833
0.333333
0.354167
0.341667
0.354167
0.333333
0.350000
0.375000
0.383333
0.412500
0.358333
0.441667
0.500000
0.450000
0.345833
0.333333
0.329167
0.358333
0.337500
0.333333
0.341667
0.375000
0.350000
0.354167
0.354167
0.325000
0.350000
0.333333
0.345833
0.354167
0.350000
0.370833
0.329167
0.308333
0.295833
0.350000
0.337500
0.337500
0.345833
0.329167
0.379167
0.504167
0.433333
0.391667
0.404167
0.337500
0.383333
0.333333
0.379167
0.350000
0.370833
0.370833
0.337500
0.358333
0.350000
0.350000
0.341667
0.337500
0.341667
0.391667
0.375000
0.400000
0.470833
0.470833
0.641667
0.329167
0.325000
0.350000
0.370833
0.345833
0.341667
0.345833
0.341667
0.337500
0.341667
0.341667
0.345833
0.333333
0.329167
0.358333
0.375000
0.341667
0.375000
0.362500
0.341667
0.366667
0.341667
0.341667
0.341667
0.333333
0.337500
0.341667
0.325000
0.333333
0.333333
0.325000
0.325000
0.383333
0.354167
0.350000
0.341667
0.337500
0.341667
0.420833
0.420833
0.370833
0.366667
0.395833
0.375000
0.375000
0.337500
0.316667
0.312500
0.350000
0.329167
0.362500
0.383333
0.337500
0.337500
0.354167
0.375000
0.350000
0.387500
0.375000
0.329167
0.350000
0.345833
0.341667
0.350000
0.391667
0.375000
0.341667
0.345833
0.350000
0.341667
0.341667
0.341667
0.337500
0.333333
0.325000
0.375000
0.341667
0.341667
0.350000
0.333333
0.304167
0.325000
0.354167
0.316667
0.337500
0.354167
0.333333
0.320833
0.345833
0.375000
0.350000
0.345833
0.341667
0.366667
0.345833
0.345833
0.350000
0.400000
0.366667
0.341667
0.358333
0.341667
0.366667
0.358333
0.358333
0.362500
0.350000
0.325000
0.345833
0.400000
0.354167
0.391667
0.375000
0.345833
0.350000
0.341667
0.358333
0.379167
0.370833
0.345833
0.350000
0.341667
0.320833
0.333333
0.354167
0.400000
0.375000
0.358333
0.391667
0.345833
0.329167
0.320833
0.312500
0.337500
0.304167
0.291667
0.341667
0.354167
0.362500
0.375000
0.337500
0.345833
0.375000
0.312500
0.325000
0.395833
0.466667
0.516667
0.362500
0.337500
0.354167
0.337500
0.345833
0.400000
0.358333
0.358333
0.341667
0.333333
0.333333
0.350000
0.345833
0.375000
0.345833
0.391667
0.370833
0.341667
0.337500
0.345833
0.375000
0.358333
0.325000
0.320833
0.312500
0.337500
0.337500
0.329167
0.370833
0.354167
0.337500
0.333333
0.316667
0.379167
0.358333
0.325000
0.325000
0.354167
0.354167
0.454167
0.370833
0.375000
0.433333
0.395833
0.354167
0.387500
0.337500
0.329167
0.341667
0.458333
0.375000
0.333333
0.300000
0.308333
0.466667
0.354167
0.354167
0.400000
0.450000
0.379167
0.341667
0.379167
0.379167
0.345833
0.341667
0.320833
0.341667
0.395833
0.400000
0.366667
0.333333
0.383333
0.379167
0.333333
0.354167
0.341667
0.383333
0.470833
0.358333
0.337500
0.345833
0.337500
0.333333
0.333333
0.320833
0.333333
0.345833
0.337500
0.366667
0.358333
0.366667
0.341667
0.312500
0.320833
0.325000
0.329167
0.337500
0.345833
0.350000
0.383333
0.358333
0.329167
0.325000
0.316667
0.316667
0.337500
0.366667
0.408333
0.358333
0.383333
0.375000
0.333333
0.341667
0.341667
0.333333
0.354167
0.320833
0.362500
0.341667
0.379167
0.379167
0.354167
0.325000
0.358333
0.308333
0.308333
0.333333
0.325000
0.325000
0.375000
0.354167
0.329167
0.325000
0.379167
0.379167
0.554167
0.358333
0.337500
0.316667
0.308333
0.391667
0.358333
0.337500
0.333333
0.362500
0.320833
0.337500
0.512500
0.412500
0.345833
0.333333
0.341667
0.320833
0.358333
0.312500
0.308333
0.375000
0.354167
0.354167
0.345833
0.366667
0.362500
0.354167
0.341667
0.358333
0.412500
0.350000
0.337500
0.345833
0.337500
0.391667
0.337500
0.329167
0.362500
0.341667
0.341667
0.325000
0.412500
0.350000
0.333333
0.308333
0.325000
0.341667
0.337500
0.445833
0.462500
0.387500
0.337500
0.329167
0.345833
0.395833
0.375000
0.345833
0.370833
0.416667
0.333333
0.333333
0.379167
0.408333
0.350000
0.333333
0.358333
0.337500
0.337500
0.358333
0.354167
0.354167
0.345833
0.366667
0.333333
0.304167
0.379167
0.370833
0.445833
0.383333
0.412500
0.362500
0.341667
0.366667
0.341667
0.354167
0.354167
0.362500
0.437500
0.366667
0.329167
0.333333
0.337500
0.341667
0.350000
0.354167
0.337500
0.337500
0.325000
0.320833
0.358333
0.333333
0.350000
0.408333
0.358333
0.333333
0.337500
0.370833
0.350000
0.362500
0.325000
0.337500
0.329167
0.320833
0.358333
0.391667
0.475000
0.341667
0.312500
0.337500
0.337500
0.333333
0.333333
0.433333
0.400000
0.350000
0.350000
0.362500
0.350000
0.345833
0.329167
0.325000
0.362500
0.358333
0.383333
0.362500
0.345833
0.379167
0.383333
0.341667
0.337500
0.341667
0.345833
0.333333
0.337500
0.325000
0.325000
0.362500
0.370833
0.337500
0.304167
0.333333
0.383333
0.350000
0.341667
0.462500
0.391667
0.341667
0.329167
0.329167
0.312500
0.304167
0.333333
0.345833
0.316667
0.316667
0.333333
0.366667
0.345833
0.395833
0.358333
0.337500
0.387500
0.370833
0.350000
0.329167
0.350000
0.354167
0.370833
0.391667
0.345833
0.333333
0.316667
0.316667
0.325000
0.341667
0.350000
0.333333
0.312500
0.341667
0.379167
0.358333
0.358333
0.345833
0.316667
0.304167
0.325000
0.320833
0.316667
0.400000
0.354167
0.391667
0.591667
0.412500
0.329167
0.337500
0.325000
0.350000
0.350000
0.404167
0.375000
0.333333
0.320833
0.329167
0.537500
0.350000
0.391667
0.475000
0.362500
0.333333
0.329167
0.329167
0.333333
0.333333
0.312500
0.316667
0.316667
0.362500
0.337500
0.354167
0.354167
0.358333
0.345833
0.337500
0.362500
0.345833
0.333333
0.308333
0.350000
0.337500
0.379167
0.370833
0.333333
0.370833
0.445833
0.229167
0.679167
0.350000
0.337500
0.350000
0.341667
0.350000
0.345833
0.350000
0.370833
0.354167
0.370833
0.366667
0.333333
0.320833
0.341667
0.358333
0.358333
0.345833
0.333333
0.329167
0.316667
0.320833
0.325000
0.333333
0.379167
0.358333
0.337500
0.375000
0.320833
0.316667
0.508333
0.550000
1.620833
0.891667
0.862500
0.879167
1.345833
0.800000
0.858333
0.858333
1.320833
0.745833
0.750000
1.304167
0.858333
0.754167
0.733333
1.291667
0.829167
0.729167
0.741667
1.275000
0.841667
0.737500
0.733333
1.266667
0.829167
0.716667
0.729167
1.258333
0.829167
0.716667
0.725000
1.258333
0.833333
0.716667
0.720833
0.750000
1.262500
0.837500
0.737500
0.729167
0.720833
0.745833
1.266667
0.808333
0.745833
0.716667
0.720833
1.233333
0.845833
0.716667
0.712500
0.741667
1.254167
0.800000
0.725000
0.716667
0.729167
1.241667
0.808333
0.720833
0.708333
0.720833
1.233333
0.795833
0.720833
0.700000
0.770833
1.220833
0.483333
1.241667
0.783333
0.770833
0.641667
0.616667
0.629167
0.600000
0.558333
0.416667
0.816667
0.741667
0.758333
0.766667
1.291667
0.733333
0.625000
0.608333
0.287500
0.591667
0.766667
0.683333
0.691667
1.283333
0.775000
0.808333
0.625000
0.650000
0.645833
0.575000
0.379167
0.337500
0.329167
0.329167
0.316667
0.312500
0.529167
0.370833
0.291667
0.308333
0.300000
0.316667
0.420833
0.395833
0.370833
0.358333
0.362500
0.329167
0.354167
0.366667
0.354167
0.337500
0.345833
0.345833
0.362500
0.333333
0.350000
0.358333
0.337500
0.375000
0.345833
0.345833
0.350000
0.362500
0.345833
0.329167
0.325000
0.320833
0.333333
0.341667
0.358333
0.429167
0.366667
0.345833
0.358333
0.345833
0.329167
0.316667
0.441667
0.441667
0.358333
0.354167
0.350000
0.354167
0.350000
0.354167
0.345833
0.325000
0.325000
0.345833
0.362500
0.341667
0.375000
0.337500
0.325000
0.370833
0.358333
0.558333
0.375000
0.341667
0.341667
0.345833
0.345833
0.345833
0.345833
0.345833
0.345833
0.325000
0.304167
0.350000
0.358333
0.362500
0.345833
0.337500
0.354167
0.375000
0.366667
0.350000
0.366667
0.350000
0.358333
0.341667
0.366667
0.375000
0.345833
0.337500
0.329167
0.312500
0.320833
0.350000
0.354167
0.383333
0.362500
0.337500
0.337500
0.337500
0.329167
0.325000
0.304167
0.333333
0.358333
0.345833
0.341667
0.341667
0.337500
0.320833
0.366667
0.379167
0.354167
0.350000
0.337500
0.337500
0.329167
0.370833
0.379167
0.429167
0.345833
0.312500
0.337500
0.341667
0.391667
0.408333
0.341667
0.312500
0.325000
0.312500
0.333333
0.400000
0.354167
0.358333
0.358333
0.333333
0.329167
0.337500
0.341667
0.320833
0.312500
0.350000
0.366667
0.362500
0.350000
0.337500
0.354167
0.350000
0.358333
0.370833
0.345833
0.366667
0.345833
0.362500
0.450000
0.375000
0.329167
0.354167
0.445833
0.429167
0.383333
0.350000
0.316667
0.325000
0.325000
0.354167
0.383333
0.395833
0.495833
0.720833
0.491667
0.695833
0.325000
0.329167
0.345833
0.341667
0.329167
0.383333
0.366667
0.329167
0.337500
0.350000
0.337500
0.320833
0.320833
0.337500
0.337500
0.345833
0.337500
0.337500
0.333333
0.350000
0.345833
0.366667
