0.554167
0.566667
0.558333
0.558333
0.566667
0.575000
0.570833
0.566667
0.566667
0.625000
0.591667
0.591667
0.583333
0.325000
0.254167
0.591667
0.579167
0.570833
0.579167
0.570833
0.570833
0.566667
0.570833
0.579167
0.566667
0.570833
0.566667
0.570833
0.570833
0.562500
0.566667
0.570833
0.570833
0.575000
0.583333
0.579167
0.587500
0.587500
0.587500
0.583333
0.587500
0.570833
0.579167
0.583333
0.587500
0.591667
0.595833
0.591667
0.604167
0.587500
0.587500
0.570833
0.587500
0.583333
0.579167
0.437500
0.754167
0.654167
0.629167
0.591667
0.591667
0.579167
0.579167
0.575000
0.583333
0.583333
0.579167
0.575000
0.583333
0.625000
0.595833
0.587500
0.616667
0.625000
0.608333
0.608333
0.591667
0.616667
0.600000
0.612500
0.595833
0.612500
0.608333
0.608333
0.591667
0.616667
0.625000
0.608333
0.608333
0.608333
0.620833
0.608333
0.608333
0.604167
0.604167
0.600000
0.608333
0.616667
0.604167
0.616667
0.637500
0.616667
0.629167
0.637500
0.620833
0.337500
0.287500
0.529167
0.687500
0.604167
0.604167
0.212500
0.987500
0.325000
0.829167
0.575000
0.375000
0.562500
0.591667
0.691667
0.550000
0.558333
0.545833
0.541667
0.545833
0.541667
0.545833
0.550000
0.545833
0.545833
0.545833
0.258333
0.283333
0.537500
0.537500
0.533333
0.533333
0.533333
0.537500
0.545833
0.545833
0.545833
0.541667
0.550000
0.541667
0.554167
0.554167
0.558333
0.558333
0.562500
0.562500
0.545833
0.570833
0.550000
0.220833
0.325000
0.258333
0.291667
0.541667
0.537500
0.745833
0.358333
0.545833
0.545833
0.541667
0.554167
0.550000
0.550000
0.558333
0.558333
0.554167
0.562500
0.562500
0.562500
0.554167
0.562500
0.562500
0.558333
0.550000
0.558333
0.554167
0.554167
0.554167
0.562500
0.541667
0.558333
0.550000
0.545833
0.550000
0.545833
0.595833
0.483333
0.541667
0.545833
0.537500
0.529167
0.545833
0.541667
0.537500
0.529167
0.529167
0.529167
0.537500
0.533333
0.529167
0.537500
0.541667
0.541667
0.550000
0.550000
0.541667
0.550000
0.550000
0.554167
0.550000
0.545833
0.550000
0.550000
0.541667
0.550000
0.545833
0.550000
0.550000
0.545833
0.554167
0.554167
0.558333
0.554167
0.558333
0.566667
0.566667
0.566667
0.570833
0.570833
0.570833
0.570833
0.566667
0.566667
0.241667
0.312500
0.550000
0.545833
0.550000
0.545833
0.541667
0.537500
0.545833
0.537500
0.529167
0.545833
0.541667
0.537500
0.537500
0.541667
0.537500
0.541667
0.537500
0.525000
0.537500
0.537500
0.529167
0.545833
0.541667
0.541667
0.541667
0.550000
0.550000
0.554167
0.562500
0.566667
0.562500
0.554167
0.550000
0.550000
0.554167
0.545833
0.545833
0.545833
0.550000
0.545833
0.537500
0.550000
0.554167
0.550000
0.554167
0.562500
0.558333
0.558333
0.550000
0.550000
0.545833
0.541667
0.545833
0.537500
0.545833
0.545833
0.545833
0.537500
0.533333
0.545833
0.541667
0.550000
0.545833
0.541667
0.545833
0.537500
0.545833
0.541667
0.545833
0.541667
0.537500
0.541667
0.541667
0.550000
0.550000
0.554167
0.550000
0.562500
0.554167
0.554167
0.554167
0.562500
0.550000
0.554167
0.558333
0.554167
0.562500
0.570833
0.566667
0.566667
0.562500
0.558333
0.570833
0.570833
0.566667
0.562500
0.562500
0.566667
0.570833
0.566667
0.566667
0.579167
0.570833
0.583333
0.575000
0.579167
0.579167
0.587500
0.579167
0.583333
0.575000
0.587500
0.600000
0.591667
0.587500
0.600000
0.583333
0.583333
0.579167
0.575000
0.575000
0.570833
0.575000
0.583333
0.583333
0.583333
0.583333
0.583333
0.579167
0.583333
0.579167
0.579167
0.587500
0.604167
0.587500
0.595833
0.595833
0.616667
0.591667
0.604167
0.595833
0.591667
0.591667
0.604167
0.591667
0.591667
0.579167
0.587500
0.591667
0.579167
0.591667
0.579167
0.566667
0.345833
0.237500
0.350000
0.225000
0.391667
0.737500
0.558333
0.262500
0.479167
0.358333
0.537500
0.545833
0.533333
0.537500
0.537500
0.541667
0.533333
0.533333
0.529167
0.537500
0.537500
0.533333
0.541667
0.545833
0.554167
0.541667
0.554167
0.554167
0.554167
0.550000
0.562500
0.554167
0.545833
0.550000
0.550000
0.541667
0.541667
0.537500
0.545833
0.545833
0.550000
0.550000
0.545833
0.545833
0.545833
0.554167
0.541667
0.554167
0.545833
0.550000
0.550000
0.550000
0.558333
0.554167
0.550000
0.554167
0.545833
0.550000
0.554167
0.558333
0.558333
0.554167
0.558333
0.558333
0.550000
0.558333
0.554167
0.562500
0.558333
0.562500
0.566667
0.570833
0.562500
0.566667
0.558333
0.550000
0.554167
0.558333
0.550000
0.554167
0.554167
0.554167
0.558333
0.558333
0.554167
0.545833
0.558333
0.541667
0.545833
0.541667
0.541667
0.537500
0.545833
0.537500
0.537500
0.533333
0.541667
0.537500
0.533333
0.541667
0.541667
0.537500
0.537500
0.537500
0.541667
0.541667
0.545833
0.545833
0.550000
0.541667
0.541667
0.537500
0.541667
0.541667
0.541667
0.545833
0.545833
0.545833
0.545833
0.554167
0.541667
0.545833
0.541667
0.545833
0.541667
0.537500
0.537500
0.537500
0.537500
0.537500
0.541667
0.541667
0.550000
0.550000
0.550000
0.550000
0.550000
0.550000
0.550000
0.550000
0.554167
0.545833
0.554167
0.562500
0.558333
0.554167
0.545833
0.545833
0.545833
0.541667
0.541667
0.537500
0.529167
0.537500
0.545833
0.208333
0.333333
0.533333
0.545833
0.541667
0.537500
0.537500
0.541667
0.545833
0.433333
0.679167
0.558333
0.550000
0.541667
0.545833
0.541667
0.433333
0.650000
0.541667
0.537500
0.529167
0.537500
0.529167
0.533333
0.537500
0.529167
0.545833
0.541667
0.541667
0.537500
0.545833
0.545833
0.545833
0.545833
0.545833
0.550000
0.550000
0.545833
0.541667
0.545833
0.541667
0.204167
0.333333
0.541667
0.533333
0.533333
0.533333
0.533333
0.541667
0.212500
0.320833
0.537500
0.529167
0.533333
0.533333
0.537500
0.529167
0.533333
0.541667
0.541667
0.545833
0.541667
0.537500
0.533333
0.529167
0.529167
0.529167
0.520833
0.529167
0.520833
0.520833
0.529167
0.529167
1.070833
0.533333
0.541667
0.533333
0.541667
0.545833
0.537500
0.545833
0.545833
0.550000
0.550000
0.545833
0.545833
0.541667
0.558333
0.570833
0.558333
0.570833
0.566667
0.566667
0.562500
0.566667
0.570833
0.558333
0.554167
0.558333
0.554167
0.550000
0.558333
0.554167
0.554167
0.562500
0.558333
0.558333
0.554167
0.562500
0.558333
0.558333
0.258333
0.295833
0.550000
0.554167
0.550000
0.562500
0.554167
0.562500
0.558333
0.558333
0.558333
0.558333
0.558333
0.558333
0.550000
0.554167
0.550000
0.558333
0.600000
0.495833
0.550000
0.541667
0.541667
0.541667
0.541667
0.545833
0.545833
0.554167
0.545833
0.545833
0.545833
0.550000
0.537500
0.537500
0.537500
0.537500
0.537500
0.533333
0.529167
0.533333
0.533333
0.533333
0.529167
0.533333
0.537500
0.545833
0.537500
0.545833
0.541667
0.537500
0.550000
0.541667
0.550000
0.550000
0.550000
0.550000
0.575000
0.570833
0.570833
0.558333
0.600000
0.587500
0.591667
0.587500
0.579167
0.595833
0.604167
0.591667
0.591667
0.579167
0.595833
0.579167
0.579167
0.579167
0.579167
0.575000
0.579167
0.566667
0.562500
0.566667
0.562500
0.558333
0.554167
0.558333
0.570833
0.554167
0.545833
0.020833
0.541667
0.541667
0.545833
0.541667
0.529167
0.400000
0.666667
0.616667
0.433333
0.537500
0.533333
0.537500
0.541667
0.545833
0.554167
0.554167
0.545833
0.550000
0.550000
0.550000
0.550000
0.554167
0.545833
0.554167
0.558333
0.558333
0.558333
0.566667
0.208333
0.341667
0.300000
0.258333
0.416667
0.250000
0.429167
0.550000
0.558333
0.554167
0.554167
0.554167
0.554167
0.554167
0.554167
0.554167
0.550000
0.554167
0.550000
0.562500
0.550000
0.554167
0.550000
0.558333
0.545833
0.558333
0.437500
0.312500
0.341667
0.216667
0.325000
0.545833
0.545833
0.550000
0.550000
0.550000
0.562500
0.295833
0.291667
0.529167
0.295833
0.079167
0.750000
0.558333
0.554167
0.558333
0.550000
0.554167
0.554167
0.554167
0.554167
0.550000
0.554167
0.550000
0.545833
0.545833
0.550000
0.550000
0.554167
0.558333
0.558333
0.550000
0.341667
0.212500
0.554167
0.554167
0.550000
0.554167
0.558333
0.554167
0.558333
0.554167
0.550000
0.550000
0.554167
0.554167
0.550000
0.554167
0.554167
0.558333
0.554167
0.558333
0.554167
0.554167
0.558333
0.554167
0.558333
0.558333
0.562500
0.566667
0.566667
0.579167
0.583333
0.570833
0.583333
0.566667
0.566667
0.712500
0.437500
0.441667
0.112500
0.554167
0.550000
0.554167
0.545833
0.550000
0.545833
0.545833
0.541667
0.541667
0.162500
0.379167
0.541667
0.537500
0.541667
0.541667
0.537500
0.541667
0.550000
0.541667
0.545833
0.554167
0.545833
0.545833
0.550000
0.558333
0.558333
0.558333
0.554167
0.558333
0.562500
0.558333
0.562500
0.554167
0.554167
0.554167
0.554167
0.558333
0.550000
0.562500
0.579167
0.570833
0.566667
0.579167
0.583333
0.575000
0.587500
0.587500
0.587500
0.587500
0.579167
0.579167
0.575000
0.575000
0.579167
0.579167
0.579167
0.570833
0.570833
0.579167
0.575000
0.587500
0.583333
0.583333
0.575000
0.587500
0.587500
0.583333
0.595833
0.587500
0.591667
0.595833
0.583333
0.591667
0.587500
0.591667
0.583333
0.495833
0.091667
0.566667
0.583333
0.575000
0.583333
0.587500
0.575000
0.212500
0.150000
0.454167
0.312500
0.562500
0.550000
0.554167
0.558333
0.550000
1.166667
0.491667
0.550000
0.550000
0.545833
0.545833
0.545833
0.533333
0.541667
0.537500
0.537500
0.533333
0.533333
0.537500
0.533333
0.537500
0.537500
0.537500
0.545833
0.541667
0.545833
0.545833
0.558333
0.554167
0.558333
0.558333
0.554167
0.558333
0.554167
0.550000
0.550000
0.550000
0.550000
0.562500
0.320833
0.216667
0.545833
0.545833
0.550000
0.545833
0.541667
0.541667
0.337500
0.208333
0.545833
0.545833
0.537500
0.545833
0.545833
0.545833
0.545833
0.550000
0.545833
0.545833
0.550000
0.550000
0.545833
0.545833
0.541667
0.550000
0.550000
0.375000
0.695833
0.533333
0.537500
0.537500
0.529167
0.533333
0.537500
0.537500
0.537500
0.545833
0.533333
0.537500
0.258333
0.433333
0.237500
0.495833
0.679167
0.520833
0.520833
0.525000
0.529167
0.533333
0.537500
0.533333
0.537500
0.537500
0.537500
0.537500
0.541667
0.545833
0.545833
0.550000
0.545833
0.545833
0.545833
0.545833
0.550000
0.550000
0.545833
0.545833
0.550000
0.545833
0.550000
0.545833
0.558333
0.558333
0.562500
0.554167
0.566667
0.566667
0.566667
0.558333
0.558333
0.562500
0.562500
0.554167
0.562500
0.558333
0.558333
0.558333
0.562500
0.562500
0.566667
0.558333
0.591667
0.525000
0.554167
0.558333
0.562500
0.558333
0.558333
0.554167
0.550000
0.550000
0.554167
0.550000
0.550000
0.545833
0.550000
0.550000
0.550000
0.550000
0.550000
0.545833
0.233333
0.312500
0.545833
0.541667
0.545833
0.541667
0.545833
0.541667
0.537500
0.537500
0.533333
0.537500
0.537500
0.537500
0.537500
0.537500
0.541667
0.541667
0.545833
0.545833
0.545833
0.554167
0.554167
0.554167
0.554167
0.545833
0.545833
0.554167
0.295833
0.241667
0.554167
0.337500
0.204167
0.095833
0.995833
0.541667
0.550000
