0.545833
0.537500
0.533333
0.533333
0.533333
0.537500
0.537500
0.537500
0.537500
0.533333
0.533333
0.537500
0.537500
0.529167
0.537500
0.533333
0.537500
0.541667
0.533333
0.537500
0.537500
0.541667
0.533333
0.537500
0.537500
0.541667
0.512500
0.550000
0.541667
0.537500
0.533333
0.516667
0.550000
0.541667
0.533333
0.537500
0.516667
0.550000
0.537500
0.537500
0.537500
0.537500
0.537500
0.537500
0.537500
0.541667
0.516667
0.550000
0.537500
0.541667
0.533333
0.520833
0.550000
0.537500
0.537500
0.537500
0.516667
0.550000
0.537500
0.537500
0.537500
0.537500
0.537500
0.537500
0.537500
0.533333
0.537500
0.541667
0.537500
0.541667
0.537500
0.537500
0.541667
0.537500
0.537500
0.537500
0.537500
0.537500
0.537500
0.541667
0.537500
0.512500
0.550000
0.541667
0.537500
0.541667
0.541667
0.537500
0.541667
0.537500
0.537500
0.541667
0.533333
0.541667
0.541667
0.512500
0.550000
0.541667
0.537500
0.541667
0.516667
0.550000
0.541667
0.541667
0.537500
0.512500
0.550000
0.545833
0.537500
0.541667
0.537500
0.537500
0.537500
0.537500
0.533333
0.516667
0.550000
0.541667
0.537500
0.537500
0.516667
0.550000
0.545833
0.537500
0.537500
0.516667
0.550000
0.545833
0.537500
0.537500
0.537500
0.537500
0.537500
0.541667
0.537500
0.512500
0.550000
0.541667
0.537500
0.537500
0.516667
0.554167
0.541667
0.541667
0.537500
0.516667
0.550000
0.545833
0.537500
0.541667
0.512500
0.554167
0.541667
0.541667
0.537500
0.516667
0.550000
0.541667
0.541667
0.541667
0.516667
0.554167
0.541667
0.541667
0.537500
0.520833
0.550000
0.545833
0.537500
0.541667
0.545833
0.533333
0.545833
0.537500
0.537500
0.516667
0.554167
0.541667
0.541667
0.537500
0.537500
0.516667
0.554167
0.541667
0.541667
0.537500
0.516667
0.554167
0.541667
0.537500
0.541667
0.533333
0.541667
0.533333
0.541667
0.537500
0.516667
0.554167
0.545833
0.537500
0.537500
0.516667
0.554167
0.537500
0.541667
0.537500
0.516667
0.550000
0.541667
0.537500
0.541667
0.512500
0.554167
0.537500
0.541667
0.533333
0.520833
0.550000
0.537500
0.537500
0.541667
0.512500
0.550000
0.541667
0.541667
0.537500
0.516667
0.550000
0.545833
0.537500
0.537500
0.516667
0.554167
0.541667
0.537500
0.541667
0.512500
0.554167
0.541667
0.537500
0.537500
0.537500
0.541667
0.533333
0.541667
0.537500
0.537500
0.516667
0.554167
0.541667
0.541667
0.533333
0.516667
0.550000
0.545833
0.537500
0.541667
0.512500
0.554167
0.541667
0.537500
0.537500
0.516667
0.554167
0.541667
0.541667
0.537500
0.516667
0.554167
0.541667
0.537500
0.537500
0.516667
0.550000
0.541667
0.541667
0.537500
0.516667
0.554167
0.541667
0.541667
0.537500
0.516667
0.545833
0.545833
0.541667
0.541667
0.516667
0.554167
0.545833
0.537500
0.541667
0.516667
0.554167
0.541667
0.541667
0.541667
0.516667
0.550000
0.545833
0.537500
0.537500
0.516667
0.550000
0.541667
0.541667
0.537500
0.516667
0.550000
0.541667
0.541667
0.533333
0.516667
0.554167
0.541667
0.537500
0.537500
0.516667
0.550000
0.545833
0.537500
0.537500
0.512500
0.550000
0.541667
0.541667
0.537500
0.512500
0.554167
0.541667
0.541667
0.537500
0.512500
0.550000
0.545833
0.537500
0.537500
0.516667
0.554167
0.541667
0.541667
0.541667
0.541667
0.512500
0.554167
0.545833
0.537500
0.541667
0.516667
0.554167
0.541667
0.537500
0.541667
0.537500
0.541667
0.537500
0.537500
0.541667
0.541667
0.516667
0.554167
0.541667
0.541667
0.537500
0.520833
0.554167
0.541667
0.541667
0.537500
0.512500
0.554167
0.545833
0.537500
0.541667
0.516667
0.554167
0.545833
0.541667
0.537500
0.516667
0.558333
0.545833
0.537500
0.541667
0.516667
0.554167
0.541667
0.541667
0.537500
0.516667
0.554167
0.541667
0.541667
0.537500
0.516667
0.554167
0.541667
0.541667
0.541667
0.541667
0.541667
0.537500
0.541667
0.537500
0.541667
0.512500
0.554167
0.541667
0.537500
0.541667
0.512500
0.550000
0.541667
0.537500
0.537500
0.516667
0.558333
0.512500
0.558333
0.541667
0.541667
0.516667
0.554167
0.541667
0.541667
0.537500
0.516667
0.550000
0.545833
0.537500
0.537500
0.516667
0.554167
0.541667
0.541667
0.537500
0.520833
0.550000
0.545833
0.537500
0.541667
0.516667
0.554167
0.545833
0.541667
0.516667
0.558333
0.541667
0.541667
0.529167
0.554167
0.512500
0.558333
0.512500
0.562500
0.537500
0.537500
0.516667
0.550000
0.541667
0.537500
0.520833
0.541667
0.541667
0.541667
0.516667
0.545833
0.541667
0.537500
0.516667
0.545833
0.541667
0.537500
0.512500
0.545833
0.541667
0.537500
0.537500
0.529167
0.537500
0.537500
0.516667
0.545833
0.537500
0.537500
0.537500
0.537500
0.537500
0.537500
0.533333
0.516667
0.545833
0.541667
0.537500
0.537500
0.537500
0.533333
0.537500
0.537500
0.512500
0.550000
0.541667
0.537500
0.537500
0.512500
0.550000
0.537500
0.537500
0.512500
0.554167
0.541667
0.537500
0.537500
0.541667
0.537500
0.537500
0.541667
0.512500
0.550000
0.541667
0.537500
0.533333
0.516667
0.545833
0.541667
0.537500
0.541667
0.537500
0.533333
0.541667
0.537500
0.512500
0.550000
0.541667
0.537500
0.537500
0.512500
0.550000
0.541667
0.537500
0.516667
0.554167
0.541667
0.541667
0.541667
0.512500
0.554167
0.541667
0.541667
0.537500
0.516667
0.550000
0.545833
0.537500
0.545833
0.512500
0.554167
0.545833
0.541667
0.512500
0.554167
0.541667
0.541667
0.508333
0.558333
0.508333
0.558333
0.512500
0.554167
0.512500
0.554167
0.541667
0.537500
0.512500
0.554167
0.541667
0.537500
0.537500
0.512500
0.550000
0.537500
0.537500
0.537500
0.508333
0.550000
0.537500
0.537500
0.537500
0.512500
0.550000
0.537500
0.537500
0.537500
0.512500
0.545833
0.541667
0.533333
0.512500
0.545833
0.537500
0.533333
0.516667
0.550000
0.537500
0.533333
0.533333
0.512500
0.550000
0.537500
0.537500
0.533333
0.512500
0.545833
0.537500
0.537500
0.508333
0.554167
0.537500
0.533333
0.533333
0.512500
0.550000
0.537500
0.537500
0.533333
0.508333
0.550000
0.537500
0.537500
0.533333
0.512500
0.550000
0.537500
0.537500
0.533333
0.512500
0.554167
0.537500
0.512500
0.550000
0.512500
0.554167
0.537500
0.537500
0.537500
0.512500
0.554167
0.512500
0.550000
0.537500
0.512500
0.550000
0.537500
0.537500
0.537500
0.508333
0.550000
0.541667
0.512500
0.554167
0.512500
0.550000
0.516667
0.554167
0.537500
0.512500
0.554167
0.541667
0.512500
0.554167
0.512500
0.558333
0.508333
0.554167
0.512500
0.554167
0.512500
0.312500
0.233333
0.541667
0.875000
0.720833
0.550000
0.375000
0.166667
0.541667
0.512500
0.554167
0.508333
0.554167
0.520833
0.550000
0.508333
0.554167
0.537500
0.516667
0.550000
0.541667
0.537500
0.537500
0.512500
0.550000
0.537500
0.537500
0.541667
0.541667
0.512500
0.554167
0.541667
0.508333
0.554167
0.541667
0.512500
0.550000
0.512500
0.550000
0.541667
0.512500
0.554167
0.512500
0.550000
0.541667
0.512500
0.550000
0.512500
0.550000
0.541667
0.512500
0.550000
0.512500
0.550000
0.541667
0.537500
0.537500
0.508333
0.554167
0.537500
0.516667
0.550000
0.512500
0.554167
0.516667
0.550000
0.537500
0.512500
0.550000
0.541667
0.537500
0.533333
0.512500
0.550000
0.541667
0.512500
0.554167
0.512500
0.554167
0.541667
0.512500
0.554167
0.508333
0.554167
0.541667
0.537500
0.541667
0.516667
0.554167
0.504167
0.558333
0.512500
0.554167
0.512500
0.550000
0.512500
0.554167
0.512500
0.525000
0.550000
0.512500
0.558333
0.512500
0.558333
0.504167
0.558333
0.512500
0.554167
0.508333
0.550000
0.516667
0.554167
0.508333
0.529167
0.550000
0.516667
0.554167
0.512500
0.554167
0.512500
0.554167
0.512500
0.554167
0.512500
0.554167
0.512500
0.554167
0.512500
0.554167
0.508333
0.550000
0.541667
0.512500
0.195833
0.358333
0.512500
0.558333
0.687500
0.379167
0.512500
0.562500
0.508333
0.558333
0.512500
0.529167
0.558333
0.541667
0.537500
0.541667
0.541667
0.545833
0.545833
0.516667
0.550000
0.541667
0.537500
0.541667
0.537500
0.541667
0.545833
0.545833
0.512500
0.558333
0.516667
0.525000
0.533333
0.554167
0.508333
0.554167
0.512500
0.558333
0.508333
0.554167
0.512500
0.525000
0.429167
0.637500
0.554167
0.512500
0.550000
0.512500
0.550000
0.541667
0.508333
0.550000
0.516667
0.550000
0.516667
0.525000
0.550000
0.512500
0.554167
0.512500
0.554167
0.504167
0.554167
0.512500
0.554167
0.512500
0.550000
0.512500
0.554167
0.508333
0.554167
0.508333
0.554167
0.512500
0.554167
0.508333
0.554167
0.508333
0.554167
0.512500
0.554167
0.512500
0.525000
0.554167
0.512500
0.558333
0.508333
0.554167
0.537500
0.516667
0.554167
0.512500
0.554167
0.508333
0.558333
0.512500
0.554167
0.512500
0.554167
0.512500
0.554167
0.516667
0.554167
0.512500
0.554167
0.512500
0.550000
0.516667
0.554167
0.516667
0.529167
0.554167
0.512500
0.562500
0.512500
0.558333
0.512500
0.554167
0.508333
0.558333
0.512500
0.558333
0.516667
0.554167
0.508333
0.562500
0.512500
0.562500
0.512500
0.529167
0.558333
0.516667
0.558333
0.516667
0.529167
0.554167
0.516667
0.562500
0.516667
0.558333
0.512500
0.525000
0.558333
0.516667
0.558333
0.516667
0.558333
0.512500
0.554167
0.516667
0.558333
0.516667
0.558333
0.512500
0.558333
0.516667
0.558333
0.516667
0.558333
0.516667
0.529167
0.558333
0.516667
0.562500
0.516667
0.558333
0.512500
0.562500
0.512500
0.562500
0.516667
0.558333
0.516667
0.529167
0.562500
0.516667
0.562500
0.516667
0.562500
0.512500
0.562500
0.512500
0.558333
0.520833
0.562500
0.516667
0.562500
0.512500
0.558333
0.520833
0.562500
0.516667
0.533333
0.558333
0.520833
0.562500
0.516667
0.562500
0.516667
0.533333
0.558333
0.520833
0.566667
0.516667
0.533333
0.558333
0.520833
0.566667
0.520833
0.562500
0.516667
0.562500
0.516667
0.566667
0.516667
0.533333
0.529167
0.570833
0.516667
0.566667
0.516667
0.558333
0.520833
0.566667
0.520833
0.562500
0.516667
0.562500
0.516667
0.558333
0.520833
0.562500
0.520833
0.562500
0.516667
0.558333
0.520833
0.566667
0.520833
0.537500
0.562500
0.520833
0.570833
0.520833
0.566667
0.516667
0.562500
0.525000
0.566667
0.516667
0.566667
0.520833
0.529167
0.570833
0.516667
0.566667
0.520833
0.562500
0.516667
0.533333
0.566667
0.520833
0.562500
0.520833
0.562500
0.516667
0.529167
0.570833
0.520833
0.566667
0.516667
0.566667
0.516667
0.566667
0.516667
0.566667
0.516667
0.533333
0.566667
0.520833
0.566667
0.520833
0.566667
0.516667
0.537500
0.529167
0.570833
0.520833
0.566667
0.516667
0.537500
0.529167
0.570833
0.516667
0.566667
0.516667
0.562500
0.520833
0.566667
0.516667
0.537500
0.529167
0.570833
0.520833
0.566667
0.516667
0.533333
0.566667
0.520833
0.570833
0.516667
0.533333
0.566667
0.516667
0.570833
0.516667
0.566667
0.516667
0.562500
0.520833
0.566667
0.516667
0.566667
0.516667
0.533333
0.570833
0.516667
0.566667
0.516667
0.562500
0.525000
0.566667
0.516667
0.566667
0.516667
0.558333
0.525000
0.566667
0.516667
0.533333
0.570833
0.516667
0.570833
0.516667
0.566667
0.516667
0.566667
0.520833
0.566667
0.516667
0.533333
0.533333
0.570833
0.520833
