0.545833
0.545833
0.550000
0.545833
0.545833
0.550000
0.545833
0.545833
0.545833
0.545833
0.550000
0.545833
0.545833
0.550000
0.545833
0.550000
0.545833
0.545833
0.550000
0.541667
0.550000
0.541667
0.550000
0.545833
0.545833
0.545833
0.545833
0.550000
0.545833
0.545833
0.545833
0.545833
0.545833
0.550000
0.545833
0.545833
0.545833
0.545833
0.550000
0.541667
0.550000
0.545833
0.545833
0.550000
0.541667
0.550000
0.545833
0.545833
0.550000
0.545833
0.545833
0.550000
0.541667
0.550000
0.545833
0.545833
0.545833
0.545833
0.550000
0.545833
0.545833
0.545833
0.550000
0.545833
0.550000
0.545833
0.545833
0.550000
0.545833
0.550000
0.545833
0.550000
0.545833
0.545833
0.550000
0.545833
0.550000
0.545833
0.545833
0.550000
0.550000
0.550000
0.545833
0.550000
0.550000
0.541667
0.550000
0.550000
0.545833
0.550000
0.550000
0.550000
0.550000
0.545833
0.550000
0.550000
0.550000
0.550000
0.545833
0.554167
0.550000
0.545833
0.554167
0.550000
0.545833
0.550000
0.550000
0.550000
0.550000
0.550000
0.550000
0.545833
0.550000
0.554167
0.545833
0.550000
0.550000
0.550000
0.554167
0.545833
0.554167
0.545833
0.550000
0.550000
0.554167
0.550000
0.545833
0.554167
0.545833
0.550000
0.550000
0.550000
0.550000
0.545833
0.550000
0.550000
0.550000
0.550000
0.545833
0.550000
0.545833
0.550000
0.545833
0.550000
0.545833
0.550000
0.541667
0.550000
0.545833
0.550000
0.545833
0.550000
0.545833
0.550000
0.545833
0.550000
0.545833
0.550000
0.550000
0.550000
0.545833
0.291667
0.254167
0.545833
0.550000
0.545833
0.550000
0.545833
0.550000
0.541667
0.550000
0.545833
0.550000
0.550000
0.545833
0.545833
0.550000
0.545833
0.550000
0.541667
0.550000
0.550000
0.545833
0.545833
0.550000
0.545833
0.545833
0.545833
0.550000
0.541667
0.550000
0.545833
0.545833
0.545833
0.541667
0.550000
0.541667
0.545833
0.512500
0.575000
0.550000
0.541667
0.545833
0.545833
0.545833
0.545833
0.541667
0.550000
0.545833
0.545833
0.545833
0.541667
0.550000
0.545833
0.541667
0.550000
0.541667
0.550000
0.545833
0.545833
0.550000
0.541667
0.550000
0.541667
0.550000
0.545833
0.545833
0.550000
0.545833
0.545833
0.545833
0.550000
0.545833
0.545833
0.545833
0.550000
0.545833
0.545833
0.550000
0.545833
0.545833
0.545833
0.550000
0.550000
0.541667
0.550000
0.545833
0.545833
0.550000
0.545833
0.545833
0.550000
0.541667
0.550000
0.545833
0.550000
0.545833
0.545833
0.550000
0.541667
0.550000
0.541667
0.550000
0.541667
0.550000
0.541667
0.550000
0.541667
0.550000
0.545833
0.545833
0.545833
0.545833
0.545833
0.545833
0.545833
0.545833
0.545833
0.550000
0.545833
0.541667
0.545833
0.545833
0.545833
0.545833
0.545833
0.541667
0.545833
0.545833
0.545833
0.545833
0.545833
0.541667
0.545833
0.545833
0.545833
0.541667
0.545833
0.545833
0.541667
0.550000
0.545833
0.541667
0.545833
0.545833
0.545833
0.416667
0.491667
0.729167
0.541667
0.545833
0.545833
0.545833
0.550000
0.545833
0.541667
0.204167
0.345833
0.300000
0.241667
0.245833
0.308333
0.545833
0.545833
0.550000
0.541667
0.545833
0.550000
0.541667
0.733333
0.362500
0.550000
0.541667
0.545833
0.545833
0.541667
0.545833
0.545833
0.541667
0.545833
0.545833
0.541667
0.545833
0.545833
0.541667
0.545833
0.541667
0.545833
0.537500
0.545833
0.545833
0.541667
0.545833
0.537500
0.545833
0.541667
0.545833
0.541667
0.541667
0.545833
0.541667
0.545833
0.545833
0.541667
0.545833
0.541667
0.545833
0.537500
0.550000
0.541667
0.541667
0.541667
0.545833
0.545833
0.541667
0.545833
0.541667
0.545833
0.545833
0.541667
0.545833
0.545833
0.545833
0.541667
0.545833
0.545833
0.541667
0.545833
0.545833
0.541667
0.550000
0.541667
0.545833
0.545833
0.541667
0.550000
0.541667
0.545833
0.545833
0.545833
0.545833
0.541667
0.545833
0.545833
0.545833
0.545833
0.545833
0.545833
0.541667
0.550000
0.545833
0.541667
0.550000
0.545833
0.545833
0.545833
0.545833
0.545833
0.545833
0.545833
0.475000
0.612500
0.554167
0.550000
0.541667
0.550000
0.545833
0.545833
0.545833
0.545833
0.545833
0.545833
0.541667
0.550000
0.541667
0.550000
0.545833
0.545833
0.541667
0.550000
0.541667
0.550000
0.541667
0.550000
0.545833
0.541667
0.500000
0.587500
0.554167
0.545833
0.545833
0.545833
0.545833
0.545833
0.545833
0.545833
0.545833
0.550000
0.541667
0.550000
0.541667
0.550000
0.541667
0.550000
0.545833
0.545833
0.545833
0.545833
0.550000
0.545833
0.545833
0.545833
0.545833
0.550000
0.545833
0.545833
0.545833
0.545833
0.545833
0.545833
0.545833
0.545833
0.545833
0.545833
0.545833
0.545833
0.545833
0.541667
0.550000
0.541667
0.545833
0.545833
0.541667
0.550000
0.541667
0.550000
0.541667
0.545833
0.545833
0.545833
0.545833
0.545833
0.545833
0.545833
0.545833
0.545833
0.545833
0.545833
0.541667
0.545833
0.545833
0.541667
0.545833
0.545833
0.541667
0.545833
0.541667
0.545833
0.545833
0.541667
0.545833
0.545833
0.545833
0.541667
0.545833
0.545833
0.545833
0.541667
0.545833
0.541667
0.550000
0.541667
0.545833
0.545833
0.545833
0.541667
0.545833
0.545833
0.545833
0.545833
0.545833
0.545833
0.541667
0.545833
0.545833
0.545833
0.545833
0.541667
0.545833
0.541667
0.545833
0.545833
0.545833
0.545833
0.545833
0.545833
0.545833
0.541667
0.420833
0.441667
0.233333
0.545833
0.545833
0.545833
0.550000
0.541667
0.545833
0.545833
0.545833
0.541667
0.541667
0.545833
0.545833
0.541667
0.545833
0.545833
0.541667
0.545833
0.541667
0.541667
0.541667
0.545833
0.545833
0.537500
0.545833
0.537500
0.545833
0.541667
0.541667
0.545833
0.541667
0.541667
0.545833
0.541667
0.541667
0.545833
0.541667
0.541667
0.541667
0.541667
0.541667
0.545833
0.541667
0.541667
0.541667
0.537500
0.541667
0.541667
0.541667
0.541667
0.541667
0.541667
0.541667
0.537500
0.545833
0.541667
0.541667
0.541667
0.537500
0.541667
0.541667
0.541667
0.541667
0.537500
0.537500
0.541667
0.541667
0.537500
0.541667
0.537500
0.541667
0.537500
0.537500
0.541667
0.537500
0.541667
0.537500
0.541667
0.537500
0.541667
0.537500
0.520833
0.554167
0.545833
0.537500
0.537500
0.541667
0.537500
0.537500
0.541667
0.537500
0.537500
0.537500
0.541667
0.537500
0.537500
0.537500
0.537500
0.537500
0.541667
0.537500
0.537500
0.541667
0.533333
0.541667
0.537500
0.500000
0.575000
0.541667
0.541667
0.533333
0.541667
0.533333
0.541667
0.533333
0.541667
0.537500
0.537500
0.541667
0.533333
0.541667
0.537500
0.541667
0.537500
0.537500
0.541667
0.537500
0.537500
0.533333
0.545833
0.541667
0.537500
0.541667
0.537500
0.541667
0.541667
0.541667
0.537500
0.541667
0.541667
0.541667
0.537500
0.541667
0.541667
0.537500
0.541667
0.541667
0.541667
0.541667
0.541667
0.537500
0.541667
0.541667
0.537500
0.541667
0.541667
0.537500
0.545833
0.541667
0.541667
0.541667
0.541667
0.537500
0.541667
0.541667
0.541667
0.537500
0.545833
0.537500
0.541667
0.541667
0.537500
0.541667
0.541667
0.541667
0.541667
0.537500
0.541667
0.537500
0.541667
0.541667
0.541667
0.537500
0.537500
0.541667
0.537500
0.541667
0.537500
0.541667
0.537500
0.541667
0.541667
0.541667
0.541667
0.537500
0.541667
0.537500
0.541667
0.541667
0.537500
0.541667
0.541667
0.541667
0.541667
0.541667
0.541667
0.545833
0.537500
0.541667
0.541667
0.537500
0.545833
0.537500
0.541667
0.545833
0.537500
0.541667
0.541667
0.541667
0.541667
0.545833
0.541667
0.541667
0.541667
0.541667
0.541667
0.545833
0.541667
0.541667
0.545833
0.537500
0.545833
0.537500
0.545833
0.541667
0.541667
0.545833
0.537500
0.545833
0.541667
0.541667
0.541667
0.541667
0.545833
0.541667
0.541667
0.541667
0.545833
0.537500
0.545833
0.537500
0.508333
0.470833
0.458333
0.545833
0.479167
0.683333
0.570833
0.554167
0.550000
0.550000
0.545833
0.545833
0.541667
0.545833
0.545833
0.541667
0.541667
0.541667
0.545833
0.545833
0.541667
0.545833
0.541667
0.545833
0.541667
0.541667
0.545833
0.541667
0.545833
0.541667
0.545833
0.545833
0.537500
0.545833
0.541667
0.545833
0.545833
0.541667
0.545833
0.541667
0.545833
0.541667
0.545833
0.541667
0.545833
0.541667
0.545833
0.541667
0.545833
0.545833
0.541667
0.545833
0.541667
0.545833
0.545833
0.541667
0.541667
0.545833
0.541667
0.545833
0.541667
0.545833
0.545833
0.541667
0.545833
0.541667
0.545833
0.541667
0.541667
0.550000
0.541667
0.545833
0.541667
0.545833
0.541667
0.545833
0.541667
0.545833
0.541667
0.545833
0.545833
0.545833
0.541667
0.545833
0.545833
0.541667
0.545833
0.541667
0.545833
0.545833
0.545833
0.545833
0.545833
0.545833
0.541667
0.545833
0.545833
0.541667
0.550000
0.541667
0.545833
0.541667
0.550000
0.541667
0.545833
0.541667
0.545833
0.545833
0.545833
0.545833
0.541667
0.550000
0.541667
0.545833
0.545833
0.545833
0.545833
0.545833
0.545833
0.541667
0.545833
0.545833
0.541667
0.545833
0.545833
0.545833
0.545833
0.541667
0.545833
0.545833
0.512500
0.541667
0.579167
0.550000
0.541667
0.545833
0.541667
0.545833
0.545833
0.541667
0.550000
0.541667
0.545833
0.545833
0.541667
0.545833
0.541667
0.545833
0.541667
0.545833
0.545833
0.541667
0.545833
0.545833
0.541667
0.545833
0.541667
0.545833
0.545833
0.545833
0.541667
0.545833
0.550000
0.545833
0.541667
0.545833
0.545833
0.545833
0.541667
0.550000
0.541667
0.533333
0.558333
0.550000
0.541667
0.545833
0.545833
0.545833
0.541667
0.550000
0.541667
0.545833
0.545833
0.545833
0.545833
0.545833
0.545833
0.545833
0.545833
0.541667
0.550000
0.541667
0.545833
0.541667
0.550000
0.541667
0.545833
0.545833
0.545833
0.545833
0.541667
0.545833
0.545833
0.545833
0.541667
0.545833
0.537500
0.545833
0.541667
0.545833
0.541667
0.545833
0.541667
0.541667
0.545833
0.537500
0.545833
0.541667
0.541667
0.541667
0.541667
0.541667
0.541667
0.541667
0.537500
0.541667
0.537500
0.541667
0.537500
0.541667
0.541667
0.537500
0.541667
0.537500
0.541667
0.533333
0.541667
0.537500
0.541667
0.537500
0.537500
0.520833
0.554167
0.541667
0.537500
0.541667
0.537500
0.537500
0.541667
0.537500
0.537500
0.541667
0.537500
0.537500
0.541667
0.537500
0.541667
0.537500
0.541667
0.537500
0.537500
0.541667
0.537500
0.541667
0.537500
0.541667
0.537500
0.537500
0.541667
0.537500
0.541667
0.537500
0.541667
0.537500
0.541667
0.537500
0.541667
0.537500
0.541667
0.537500
0.541667
0.537500
0.541667
0.537500
0.541667
0.541667
0.533333
0.541667
0.537500
0.541667
0.537500
0.541667
0.537500
0.541667
0.537500
0.537500
0.541667
0.537500
0.537500
0.537500
0.537500
0.537500
0.541667
0.533333
0.541667
0.533333
0.541667
0.541667
0.533333
0.537500
0.537500
0.537500
0.537500
0.537500
0.533333
0.537500
0.537500
0.537500
0.537500
0.533333
0.537500
0.537500
0.529167
0.541667
0.500000
0.562500
0.541667
0.533333
0.537500
0.533333
0.537500
0.533333
0.537500
0.533333
0.533333
0.537500
0.533333
0.533333
0.533333
0.537500
0.533333
