0.370833
0.241667
0.425000
0.337500
0.325000
0.233333
0.425000
0.325000
0.570833
0.362500
0.341667
0.295833
0.300000
0.329167
0.337500
0.320833
0.295833
0.287500
0.287500
0.279167
0.300000
0.312500
0.225000
0.391667
0.312500
0.291667
0.287500
0.295833
0.308333
0.325000
0.320833
0.308333
0.329167
0.329167
0.329167
0.312500
0.295833
0.333333
0.329167
0.312500
0.312500
0.295833
0.333333
0.329167
0.333333
0.320833
0.304167
0.329167
0.333333
0.304167
0.216667
0.408333
0.337500
0.337500
0.316667
0.316667
0.312500
0.304167
0.333333
0.379167
0.337500
0.233333
0.391667
0.308333
0.337500
0.375000
0.375000
0.337500
0.308333
0.229167
0.358333
0.291667
0.350000
0.391667
0.333333
0.333333
0.350000
0.233333
0.379167
0.287500
0.291667
0.320833
0.391667
0.479167
0.333333
0.295833
0.291667
0.337500
0.358333
0.354167
0.300000
0.283333
0.208333
0.391667
0.316667
0.300000
0.212500
0.312500
0.320833
0.429167
0.366667
0.337500
0.325000
0.312500
0.216667
0.400000
0.216667
0.425000
0.320833
0.220833
0.395833
0.329167
0.220833
0.458333
0.404167
0.316667
0.445833
0.337500
0.291667
0.212500
0.362500
0.291667
0.316667
0.383333
0.387500
0.333333
0.329167
0.325000
0.312500
0.291667
0.329167
0.370833
0.400000
0.229167
0.412500
0.354167
0.429167
0.341667
0.462500
0.241667
0.358333
0.275000
0.295833
0.295833
0.325000
0.391667
0.416667
0.391667
0.329167
0.295833
0.295833
0.212500
0.729167
0.129167
0.445833
0.329167
0.295833
0.304167
0.329167
0.333333
0.325000
0.325000
0.316667
0.287500
0.300000
0.350000
0.329167
0.316667
0.329167
0.279167
0.508333
0.337500
0.287500
0.308333
0.320833
0.216667
0.420833
0.333333
0.341667
0.354167
0.350000
0.412500
0.379167
0.329167
0.312500
0.304167
0.358333
0.220833
0.429167
0.300000
0.312500
0.325000
0.320833
0.312500
0.308333
0.320833
0.312500
0.216667
0.408333
0.308333
0.320833
0.337500
0.320833
0.308333
0.316667
0.212500
0.416667
0.304167
0.216667
0.395833
0.304167
0.300000
0.300000
0.329167
0.216667
0.512500
0.333333
0.379167
0.362500
0.225000
0.454167
0.341667
0.225000
0.379167
0.300000
0.212500
0.320833
0.404167
0.320833
0.216667
0.670833
0.116667
0.391667
0.295833
0.383333
0.341667
0.320833
0.316667
0.320833
0.216667
0.425000
0.329167
0.216667
0.425000
0.366667
0.670833
0.300000
0.387500
0.225000
0.416667
0.216667
0.387500
0.325000
0.212500
0.404167
0.300000
0.300000
0.300000
0.212500
0.416667
0.325000
0.216667
0.416667
0.325000
0.216667
0.404167
0.325000
0.333333
0.320833
0.312500
0.212500
0.366667
0.212500
0.383333
0.295833
0.325000
0.212500
0.437500
0.212500
0.420833
0.320833
0.329167
0.216667
0.475000
0.362500
0.333333
0.220833
0.416667
0.220833
0.304167
0.304167
0.312500
0.379167
0.291667
0.320833
0.320833
0.337500
0.341667
0.216667
0.479167
0.216667
0.345833
0.475000
0.333333
0.216667
0.395833
0.212500
0.408333
0.320833
0.333333
0.329167
0.341667
0.370833
0.350000
0.220833
0.404167
0.216667
0.391667
0.304167
0.208333
0.316667
0.391667
0.333333
0.329167
0.312500
0.295833
0.279167
0.295833
0.341667
0.220833
0.479167
0.375000
0.333333
0.316667
0.308333
0.304167
0.295833
0.308333
0.333333
0.212500
0.329167
0.387500
0.300000
0.366667
0.345833
0.316667
0.216667
0.308333
0.316667
0.320833
0.416667
0.300000
0.212500
0.379167
0.287500
0.316667
0.354167
0.345833
0.220833
0.316667
0.395833
0.216667
0.445833
0.325000
0.216667
0.325000
0.325000
0.320833
0.408333
0.300000
0.212500
0.412500
0.333333
0.333333
0.333333
0.325000
0.212500
0.325000
0.391667
0.316667
0.212500
0.408333
0.312500
0.354167
0.350000
0.325000
0.212500
0.454167
0.358333
0.220833
0.425000
0.287500
0.316667
0.358333
0.395833
0.466667
0.225000
0.450000
0.341667
0.395833
0.329167
0.312500
0.550000
0.237500
0.429167
0.537500
0.350000
0.233333
0.370833
0.283333
0.300000
0.325000
0.216667
0.325000
0.383333
0.329167
0.216667
0.433333
0.304167
0.304167
0.362500
0.341667
0.345833
0.345833
0.433333
0.225000
0.404167
0.275000
0.300000
0.208333
0.320833
0.454167
0.337500
0.220833
0.416667
0.333333
0.387500
0.345833
0.312500
0.308333
0.212500
0.408333
0.304167
0.208333
0.662500
0.404167
0.333333
0.220833
0.379167
0.295833
0.287500
0.304167
0.312500
0.333333
0.345833
0.216667
0.458333
0.375000
0.341667
0.325000
0.345833
0.329167
0.350000
0.341667
0.329167
0.329167
0.333333
0.350000
0.220833
0.304167
0.458333
0.337500
0.354167
0.345833
0.333333
0.216667
0.375000
0.333333
0.337500
0.325000
0.220833
0.366667
0.212500
0.291667
0.575000
0.220833
0.437500
0.295833
0.312500
0.325000
0.358333
0.354167
0.325000
0.308333
0.291667
0.291667
0.325000
0.212500
0.475000
0.375000
0.329167
0.216667
0.433333
0.333333
0.358333
0.220833
0.404167
0.212500
0.458333
0.545833
0.370833
0.329167
0.337500
0.337500
0.220833
0.437500
0.216667
0.420833
0.212500
0.387500
0.316667
0.420833
0.229167
0.654167
0.229167
0.758333
0.229167
0.316667
0.316667
0.341667
0.341667
0.312500
0.320833
0.370833
0.337500
1.420833
0.950000
0.829167
1.316667
0.833333
0.800000
0.816667
0.879167
1.216667
0.737500
0.916667
0.737500
0.766667
0.662500
0.750000
0.845833
0.741667
0.754167
0.754167
0.745833
0.745833
0.750000
0.745833
0.745833
0.745833
0.654167
0.833333
0.745833
0.741667
0.654167
0.741667
0.745833
0.741667
0.741667
0.750000
0.829167
0.658333
0.741667
0.745833
0.733333
0.750000
0.737500
0.733333
0.737500
0.741667
0.737500
0.733333
0.733333
0.737500
0.733333
0.729167
0.729167
0.733333
0.729167
0.725000
0.725000
0.733333
0.725000
0.720833
0.725000
0.729167
0.725000
0.716667
0.725000
0.725000
0.720833
0.820833
0.629167
0.716667
0.725000
0.708333
0.729167
0.720833
0.725000
0.804167
0.629167
0.712500
0.729167
0.804167
0.616667
0.729167
0.804167
0.629167
0.795833
0.725000
0.712500
0.625000
0.700000
0.720833
0.791667
0.633333
0.695833
0.716667
0.700000
0.812500
0.604167
0.716667
0.700000
0.716667
0.695833
0.712500
1.100000
0.562500
0.420833
0.808333
1.179167
0.729167
0.666667
0.725000
0.579167
0.583333
0.591667
0.645833
0.550000
0.612500
0.600000
0.608333
0.625000
0.566667
0.529167
0.616667
0.687500
0.487500
0.254167
0.641667
0.733333
0.691667
0.683333
0.562500
0.554167
0.466667
0.662500
0.487500
0.250000
0.325000
0.337500
0.308333
0.304167
0.304167
0.229167
0.391667
0.333333
0.316667
0.300000
0.295833
0.295833
0.370833
0.362500
0.316667
0.312500
0.312500
0.308333
0.295833
0.337500
0.366667
0.341667
0.320833
0.312500
0.329167
0.320833
0.320833
0.329167
0.304167
0.304167
0.320833
0.312500
0.295833
0.316667
0.325000
0.320833
0.308333
0.304167
0.333333
0.595833
0.458333
0.237500
0.308333
0.295833
0.283333
0.300000
0.220833
0.387500
0.320833
0.408333
0.337500
0.308333
0.283333
0.275000
0.287500
0.220833
0.437500
0.312500
0.308333
0.325000
0.325000
0.358333
0.366667
0.325000
0.325000
0.312500
0.291667
0.312500
0.345833
0.229167
0.329167
0.595833
0.341667
0.295833
0.316667
0.329167
0.316667
0.325000
0.320833
0.316667
0.320833
0.304167
0.312500
0.325000
0.300000
0.295833
0.304167
0.325000
0.329167
0.320833
0.216667
0.333333
0.391667
0.304167
0.225000
0.395833
0.300000
0.304167
0.220833
0.308333
0.341667
0.429167
0.316667
0.316667
0.220833
0.400000
0.295833
0.304167
0.304167
0.316667
0.320833
0.316667
0.312500
0.295833
0.304167
0.312500
0.304167
0.216667
0.437500
0.316667
0.345833
0.354167
0.325000
0.316667
0.216667
0.416667
0.329167
0.220833
0.504167
0.233333
0.395833
0.304167
0.291667
0.300000
0.308333
0.295833
0.325000
0.333333
0.220833
0.475000
0.325000
0.329167
0.216667
0.408333
0.316667
0.304167
0.312500
0.350000
0.225000
0.454167
0.220833
0.416667
0.333333
0.512500
0.233333
0.412500
0.308333
0.304167
0.300000
0.325000
0.225000
0.383333
0.216667
0.300000
0.587500
0.354167
0.508333
0.116667
0.395833
0.287500
0.329167
0.408333
0.229167
0.329167
0.300000
0.487500
0.395833
0.325000
0.295833
0.283333
0.291667
0.212500
0.370833
0.220833
0.395833
0.212500
0.458333
0.325000
0.325000
0.216667
0.354167
0.295833
0.291667
0.279167
0.325000
0.345833
0.337500
0.341667
0.225000
0.412500
0.275000
0.291667
0.320833
0.304167
0.333333
0.350000
0.325000
0.287500
0.291667
0.308333
0.316667
0.329167
0.316667
0.216667
0.425000
0.308333
0.333333
0.216667
0.429167
0.320833
0.362500
0.495833
0.370833
0.237500
0.375000
0.312500
0.300000
0.266667
0.270833
0.304167
0.212500
0.441667
0.300000
0.291667
0.325000
0.675000
0.120833
0.345833
0.295833
0.308333
0.391667
0.279167
0.204167
0.320833
0.445833
0.316667
0.325000
0.212500
0.541667
0.641667
0.245833
0.304167
0.216667
0.320833
0.291667
0.287500
0.295833
0.304167
0.212500
0.429167
0.308333
0.329167
0.337500
0.316667
0.295833
0.308333
0.316667
0.212500
0.437500
0.300000
0.320833
0.216667
0.491667
0.333333
0.287500
0.279167
0.308333
0.304167
0.304167
0.216667
0.470833
0.354167
0.337500
0.316667
0.283333
0.208333
0.450000
0.375000
0.225000
0.395833
0.329167
0.383333
0.225000
0.329167
0.387500
0.333333
0.341667
0.329167
0.216667
0.429167
0.216667
0.416667
0.291667
0.295833
0.295833
0.308333
0.312500
0.325000
0.345833
0.337500
0.316667
0.308333
0.320833
0.212500
0.316667
0.412500
0.304167
0.325000
0.216667
0.420833
0.295833
0.316667
0.312500
0.204167
0.320833
0.445833
0.216667
0.387500
0.316667
0.387500
0.225000
0.333333
0.312500
0.329167
0.325000
0.441667
0.212500
0.487500
0.362500
0.320833
0.312500
0.216667
0.325000
0.375000
0.362500
0.358333
0.325000
0.316667
0.216667
0.379167
0.204167
0.404167
0.216667
0.445833
0.308333
0.295833
0.312500
0.300000
0.295833
0.333333
0.212500
0.483333
0.216667
0.341667
0.395833
0.316667
0.212500
0.333333
0.337500
0.425000
0.420833
0.341667
0.329167
0.325000
0.320833
0.216667
0.429167
0.212500
0.400000
0.208333
0.425000
0.212500
0.325000
0.337500
0.366667
0.320833
0.379167
0.320833
0.212500
0.479167
0.341667
0.216667
0.412500
0.266667
0.316667
0.366667
0.341667
0.395833
0.470833
0.341667
0.316667
0.216667
0.437500
0.212500
0.595833
1.716667
0.945833
0.850000
0.954167
1.204167
0.887500
0.841667
0.825000
0.762500
0.804167
1.120833
0.929167
0.854167
0.754167
0.829167
0.720833
1.220833
0.870833
0.675000
0.729167
0.833333
0.745833
0.650000
0.837500
0.658333
0.750000
0.729167
0.833333
0.650000
0.741667
0.737500
0.829167
0.741667
0.741667
0.737500
0.650000
0.741667
0.741667
0.741667
0.741667
0.741667
0.737500
0.833333
0.654167
0.741667
0.733333
0.833333
0.741667
0.745833
0.641667
0.737500
0.737500
0.829167
0.645833
0.737500
0.733333
0.729167
0.820833
0.641667
0.729167
0.725000
0.729167
0.816667
0.637500
0.720833
0.725000
0.725000
0.720833
0.812500
0.633333
0.725000
0.812500
0.625000
0.812500
0.633333
0.812500
0.629167
0.808333
0.633333
0.812500
0.625000
0.716667
0.720833
0.720833
0.720833
0.712500
0.808333
0.720833
0.620833
0.712500
0.712500
0.804167
0.616667
0.708333
0.800000
0.712500
0.612500
0.708333
0.708333
0.795833
0.708333
0.704167
0.612500
0.704167
0.700000
0.791667
0.612500
0.791667
0.608333
0.704167
0.700000
0.791667
0.608333
0.787500
0.612500
0.787500
0.695833
0.700000
0.608333
0.695833
0.695833
0.704167
0.783333
0.608333
0.791667
0.700000
0.695833
0.700000
0.700000
0.704167
0.604167
0.700000
0.787500
0.704167
0.308333
1.041667
0.437500
0.545833
0.537500
0.616667
0.625000
1.320833
0.720833
0.716667
0.570833
0.716667
1.345833
0.704167
0.408333
0.345833
0.312500
0.287500
0.491667
1.212500
0.712500
0.745833
0.554167
0.562500
0.658333
0.458333
0.591667
0.679167
0.579167
0.625000
0.329167
0.341667
0.250000
0.345833
0.304167
0.316667
0.320833
0.316667
0.300000
0.304167
0.329167
0.233333
0.387500
0.304167
0.325000
0.320833
0.316667
0.333333
0.320833
0.333333
0.520833
0.233333
0.320833
0.320833
0.316667
0.312500
0.312500
0.333333
0.350000
0.325000
0.316667
0.308333
0.300000
0.300000
0.312500
0.316667
0.325000
0.320833
0.350000
0.437500
0.350000
0.300000
0.320833
0.325000
0.308333
0.325000
0.229167
0.425000
0.325000
0.316667
0.312500
0.320833
0.320833
0.350000
0.337500
0.325000
0.316667
0.320833
0.325000
0.312500
0.308333
0.337500
0.358333
0.333333
0.325000
0.308333
0.220833
0.416667
0.345833
0.333333
0.329167
0.329167
0.308333
0.312500
0.300000
0.295833
0.329167
0.358333
0.325000
0.304167
0.316667
0.325000
0.320833
0.320833
0.320833
0.300000
0.291667
0.333333
0.225000
0.454167
0.337500
0.325000
0.312500
0.316667
0.220833
0.425000
0.320833
0.312500
0.320833
0.312500
0.312500
0.325000
0.325000
0.316667
0.320833
0.216667
0.441667
0.220833
0.683333
0.337500
0.287500
0.333333
0.341667
0.308333
0.225000
0.441667
0.337500
0.320833
0.312500
0.308333
0.312500
0.220833
0.429167
0.304167
0.287500
0.291667
0.325000
0.362500
0.366667
0.608333
0.216667
0.283333
0.212500
0.445833
0.225000
0.333333
0.387500
0.295833
0.333333
0.225000
0.337500
0.333333
0.395833
0.279167
0.304167
0.333333
0.350000
0.225000
0.433333
0.558333
0.350000
0.275000
0.291667
0.345833
0.229167
0.420833
0.216667
0.437500
0.308333
0.287500
0.470833
0.237500
0.458333
0.308333
0.300000
0.295833
0.295833
0.304167
0.325000
0.325000
0.312500
0.312500
0.216667
0.408333
0.300000
0.304167
0.304167
0.300000
0.320833
0.358333
0.308333
0.295833
0.325000
0.333333
0.295833
0.283333
0.316667
0.316667
0.308333
0.291667
0.300000
0.216667
0.454167
0.320833
0.341667
0.520833
0.237500
0.408333
0.283333
0.462500
0.229167
0.325000
0.283333
0.312500
0.216667
0.375000
0.283333
0.291667
0.312500
0.304167
0.291667
0.320833
0.216667
0.345833
0.412500
0.320833
0.287500
0.291667
0.325000
0.366667
0.383333
0.312500
0.320833
0.462500
0.329167
0.304167
0.208333
0.483333
0.358333
0.325000
0.212500
0.416667
0.216667
0.412500
0.329167
0.345833
0.220833
0.404167
0.320833
0.325000
0.216667
0.333333
0.333333
0.329167
0.416667
0.320833
0.316667
0.366667
0.225000
0.412500
0.283333
0.295833
0.208333
0.479167
0.370833
0.329167
0.312500
0.325000
0.216667
0.337500
0.329167
0.433333
0.308333
0.316667
0.341667
0.325000
0.295833
0.304167
0.316667
0.300000
0.291667
0.312500
0.366667
0.362500
0.345833
0.554167
0.362500
0.325000
0.216667
0.395833
0.216667
0.354167
0.300000
0.300000
0.320833
0.216667
0.391667
0.333333
0.329167
0.316667
0.304167
0.295833
0.304167
0.212500
0.320833
0.329167
0.325000
0.395833
0.283333
0.308333
0.312500
0.208333
0.320833
0.333333
0.395833
0.316667
