0.358333
0.350000
0.354167
0.358333
0.345833
0.358333
0.358333
0.354167
0.354167
0.354167
0.354167
0.350000
0.358333
0.354167
0.354167
0.354167
0.354167
0.354167
0.350000
0.320833
0.325000
0.387500
0.375000
0.358333
0.358333
0.341667
0.354167
0.358333
0.358333
0.354167
0.358333
0.358333
0.216667
0.491667
0.362500
0.358333
0.354167
0.358333
0.350000
0.362500
0.358333
0.358333
0.354167
0.358333
0.354167
0.354167
0.354167
0.354167
0.362500
0.354167
0.358333
0.350000
0.362500
0.358333
0.350000
0.362500
0.358333
0.354167
0.358333
0.358333
0.358333
0.354167
0.358333
0.354167
0.220833
0.491667
0.358333
0.358333
0.358333
0.358333
0.354167
0.358333
0.354167
0.362500
0.358333
0.354167
0.354167
0.358333
0.358333
0.358333
0.354167
0.358333
0.358333
0.354167
0.358333
0.354167
0.358333
0.362500
0.350000
0.358333
0.358333
0.358333
0.354167
0.354167
0.358333
0.354167
0.358333
0.354167
0.358333
0.358333
0.350000
0.354167
0.354167
0.362500
0.350000
0.358333
0.354167
0.358333
0.358333
0.354167
0.354167
0.358333
0.354167
0.345833
0.354167
0.362500
0.358333
0.350000
0.354167
0.354167
0.358333
0.350000
0.358333
0.358333
0.350000
0.354167
0.358333
0.350000
0.350000
0.341667
0.362500
0.354167
0.354167
0.354167
0.358333
0.354167
0.350000
0.333333
0.341667
0.329167
1.179167
1.862500
1.141667
1.025000
1.058333
0.979167
0.970833
0.966667
0.945833
0.912500
0.891667
1.095833
0.929167
0.962500
0.954167
0.954167
0.950000
0.945833
0.941667
0.941667
0.925000
0.933333
0.925000
0.920833
0.920833
0.916667
0.912500
0.920833
0.358333
0.779167
0.541667
0.387500
0.445833
0.433333
1.337500
1.095833
0.366667
0.816667
0.745833
1.116667
0.950000
1.208333
0.891667
0.775000
0.529167
0.308333
1.562500
0.983333
0.487500
0.341667
0.379167
1.183333
0.466667
0.345833
1.929167
0.983333
0.958333
0.591667
0.225000
0.383333
0.541667
0.412500
0.641667
0.641667
0.725000
0.570833
0.345833
1.687500
0.916667
0.904167
1.462500
0.891667
0.708333
0.525000
0.687500
0.433333
0.658333
0.758333
1.379167
1.141667
0.791667
0.770833
0.595833
1.054167
0.870833
1.054167
0.900000
0.733333
0.650000
0.366667
1.187500
1.395833
0.812500
0.800000
0.766667
0.379167
0.370833
0.312500
0.333333
0.345833
0.341667
0.350000
0.358333
0.516667
0.250000
0.350000
0.350000
0.358333
0.358333
0.375000
0.383333
0.250000
0.520833
0.354167
0.354167
0.366667
0.333333
0.333333
0.370833
0.562500
0.379167
0.308333
0.345833
0.362500
0.370833
0.425000
0.412500
1.650000
1.008333
1.325000
0.891667
0.912500
1.320833
0.633333
0.779167
1.062500
1.016667
0.966667
0.941667
0.941667
0.470833
0.616667
0.654167
1.370833
0.520833
0.787500
1.333333
0.916667
0.829167
1.141667
0.987500
0.854167
0.466667
0.700000
0.633333
0.733333
0.654167
0.687500
0.683333
0.675000
0.795833
0.662500
0.379167
0.466667
0.625000
0.416667
0.462500
0.637500
0.533333
0.354167
0.645833
0.537500
0.345833
0.629167
1.345833
0.466667
0.370833
0.591667
0.279167
0.354167
0.387500
0.383333
0.354167
0.354167
0.375000
0.341667
0.337500
0.383333
0.350000
0.604167
0.391667
1.304167
0.845833
0.833333
0.833333
0.887500
1.175000
0.879167
1.141667
0.479167
0.570833
0.775000
0.662500
1.345833
0.483333
0.350000
0.533333
0.437500
1.466667
0.483333
0.341667
0.345833
0.366667
0.333333
0.333333
0.362500
0.350000
0.329167
0.345833
0.366667
0.379167
0.379167
0.345833
0.316667
0.325000
0.333333
0.512500
0.425000
0.358333
0.362500
0.537500
0.458333
0.433333
0.387500
0.354167
0.358333
0.341667
0.345833
0.358333
0.350000
0.341667
0.345833
0.345833
0.370833
0.333333
0.337500
0.345833
0.341667
0.337500
0.337500
0.379167
0.375000
0.383333
0.354167
0.358333
0.408333
0.383333
1.462500
0.962500
1.154167
1.245833
0.933333
0.929167
0.912500
0.912500
0.916667
0.904167
0.912500
0.900000
0.458333
0.329167
0.295833
0.379167
1.195833
0.458333
0.354167
0.362500
0.362500
0.341667
0.320833
0.345833
0.358333
0.354167
0.366667
0.366667
0.354167
0.362500
0.366667
0.350000
0.354167
0.658333
0.275000
1.329167
1.237500
1.362500
1.345833
0.920833
0.454167
1.395833
0.600000
0.233333
0.333333
0.558333
1.375000
0.475000
0.345833
0.333333
0.387500
0.412500
1.725000
0.479167
1.341667
0.933333
0.937500
0.920833
0.916667
0.916667
0.916667
0.916667
0.920833
0.916667
0.916667
0.916667
0.470833
0.691667
0.933333
0.612500
0.312500
0.625000
0.504167
0.395833
0.325000
0.341667
0.345833
0.345833
0.350000
0.350000
0.345833
0.325000
0.350000
0.370833
0.400000
0.350000
0.329167
0.345833
0.608333
0.375000
0.370833
0.412500
0.366667
0.350000
0.350000
0.329167
0.333333
0.362500
1.570833
0.454167
1.250000
0.470833
1.470833
0.479167
1.375000
0.475000
1.345833
0.487500
0.608333
0.675000
0.829167
1.254167
0.525000
0.666667
0.733333
0.683333
1.262500
0.479167
0.341667
0.300000
0.337500
0.450000
0.270833
0.445833
0.362500
0.383333
0.645833
0.162500
1.229167
0.470833
1.491667
0.475000
0.366667
0.329167
0.316667
0.379167
0.383333
0.345833
0.350000
0.358333
0.354167
0.358333
0.358333
0.358333
0.350000
0.358333
0.370833
0.362500
0.358333
0.358333
0.370833
0.362500
0.358333
0.358333
0.370833
0.362500
0.362500
0.362500
0.370833
0.358333
0.362500
0.362500
0.366667
0.362500
0.362500
0.366667
0.362500
0.362500
0.358333
0.366667
0.366667
0.362500
0.366667
0.366667
0.370833
0.362500
0.358333
0.366667
0.370833
0.362500
0.362500
0.366667
0.366667
0.362500
0.362500
0.366667
0.366667
0.366667
0.366667
0.366667
0.366667
0.366667
0.366667
0.366667
0.362500
0.366667
0.370833
0.362500
0.362500
0.366667
0.370833
0.366667
0.366667
0.354167
0.370833
0.366667
0.366667
0.366667
0.366667
0.362500
0.362500
0.366667
0.366667
0.362500
0.366667
0.362500
0.366667
0.366667
0.362500
0.366667
0.358333
0.362500
0.370833
0.366667
0.358333
0.362500
0.366667
0.366667
0.354167
0.362500
0.370833
0.362500
0.362500
0.362500
0.362500
0.366667
0.362500
0.354167
0.366667
0.366667
0.362500
0.358333
0.362500
0.366667
0.362500
0.362500
0.358333
0.362500
0.362500
0.362500
0.362500
0.354167
0.362500
0.370833
0.362500
0.354167
0.362500
0.358333
0.362500
0.358333
0.362500
0.362500
0.362500
0.358333
0.358333
0.366667
0.362500
0.354167
0.362500
0.366667
0.358333
0.362500
0.366667
0.362500
0.354167
0.362500
0.362500
0.362500
0.354167
0.362500
0.366667
0.354167
0.362500
0.362500
0.358333
0.358333
0.362500
0.358333
0.358333
0.366667
0.358333
0.354167
0.362500
0.362500
0.350000
0.362500
0.366667
0.358333
0.362500
0.358333
0.358333
0.362500
0.358333
0.358333
0.358333
0.366667
0.358333
0.354167
0.362500
0.362500
0.362500
0.354167
0.358333
0.362500
0.354167
0.358333
0.370833
0.354167
0.358333
0.362500
0.362500
0.358333
0.358333
0.362500
0.354167
0.354167
0.362500
0.358333
0.341667
0.375000
0.366667
0.350000
0.387500
0.375000
0.366667
0.366667
0.375000
0.366667
0.362500
0.366667
0.370833
0.362500
0.362500
0.358333
0.354167
0.350000
0.350000
0.358333
0.358333
0.350000
0.358333
0.354167
0.358333
0.354167
0.358333
0.358333
0.358333
0.350000
0.358333
0.362500
0.345833
0.362500
0.366667
0.350000
0.358333
0.362500
0.350000
0.366667
0.362500
0.345833
0.362500
0.362500
0.354167
0.358333
0.358333
0.362500
0.350000
0.358333
0.362500
0.358333
0.354167
0.358333
0.358333
0.358333
0.350000
0.358333
0.366667
0.350000
0.358333
0.362500
0.350000
0.354167
0.366667
0.350000
0.358333
0.358333
0.354167
0.354167
0.325000
0.429167
0.391667
0.366667
0.379167
0.341667
0.358333
0.362500
0.412500
0.420833
0.383333
0.383333
0.391667
0.375000
0.450000
0.375000
0.387500
0.354167
0.308333
0.358333
0.387500
0.362500
0.354167
0.350000
0.362500
0.416667
0.379167
0.350000
0.354167
0.362500
0.379167
0.408333
0.391667
0.362500
0.375000
0.387500
0.391667
0.395833
0.237500
0.520833
0.366667
0.387500
0.395833
0.362500
0.337500
0.354167
0.354167
0.345833
0.350000
0.350000
0.391667
0.370833
0.350000
0.370833
0.350000
0.341667
0.354167
0.379167
0.358333
0.429167
0.375000
0.408333
0.470833
0.370833
0.375000
0.391667
0.366667
0.379167
0.391667
0.391667
0.366667
0.354167
0.337500
0.341667
0.329167
0.312500
0.362500
0.395833
0.379167
0.495833
0.370833
0.333333
0.354167
0.466667
0.408333
0.362500
0.229167
0.437500
0.354167
1.695833
0.991667
1.283333
1.241667
1.016667
0.970833
0.975000
0.962500
0.937500
0.933333
0.904167
0.904167
1.400000
0.970833
0.945833
0.916667
0.891667
0.791667
0.904167
0.929167
0.879167
1.158333
0.962500
0.458333
0.337500
0.345833
0.445833
0.379167
0.308333
0.304167
0.233333
0.458333
0.370833
0.375000
0.370833
0.362500
0.350000
0.329167
0.337500
0.358333
0.370833
0.358333
0.383333
0.358333
0.337500
0.337500
0.445833
0.245833
0.483333
0.375000
0.350000
0.345833
0.370833
0.354167
0.333333
0.337500
0.341667
0.350000
0.366667
0.375000
0.333333
0.329167
0.341667
0.337500
0.362500
0.329167
0.291667
0.695833
0.291667
0.383333
0.375000
0.362500
0.441667
0.362500
0.350000
0.329167
0.308333
2.233333
1.270833
1.145833
0.983333
1.000000
0.979167
0.966667
0.954167
0.945833
0.950000
0.929167
0.925000
0.891667
0.870833
0.858333
0.450000
0.329167
0.316667
0.500000
0.391667
0.316667
0.333333
0.358333
0.362500
0.420833
0.258333
0.512500
0.383333
0.345833
0.345833
0.362500
0.366667
0.354167
0.350000
0.354167
0.358333
0.350000
0.345833
0.350000
0.354167
0.337500
0.350000
0.358333
0.358333
0.350000
0.354167
0.354167
0.354167
0.350000
0.350000
0.354167
0.358333
0.350000
0.354167
0.354167
0.354167
0.354167
0.358333
0.354167
0.350000
0.354167
0.358333
0.358333
0.354167
0.354167
0.358333
0.358333
0.354167
0.358333
0.358333
0.358333
0.362500
0.354167
0.358333
0.362500
0.362500
0.354167
0.354167
0.362500
0.354167
0.358333
0.362500
0.362500
0.350000
0.362500
0.362500
0.358333
0.358333
0.354167
0.362500
0.358333
0.354167
0.354167
0.366667
0.362500
0.362500
0.358333
0.354167
0.362500
0.366667
0.354167
0.362500
0.362500
0.350000
0.358333
0.366667
0.358333
0.358333
0.358333
0.354167
0.358333
0.362500
0.362500
0.358333
0.358333
0.358333
0.354167
0.358333
0.362500
0.350000
0.362500
0.362500
0.354167
0.362500
0.350000
0.354167
0.366667
0.362500
0.350000
0.362500
0.366667
0.362500
0.345833
0.358333
0.362500
0.354167
0.362500
0.358333
0.350000
0.366667
0.358333
0.345833
0.366667
0.362500
0.354167
0.358333
0.362500
0.358333
0.354167
0.358333
0.358333
0.345833
0.358333
0.366667
0.358333
0.354167
0.358333
0.358333
0.354167
0.358333
0.354167
0.354167
0.358333
0.358333
0.354167
0.354167
0.362500
0.362500
0.354167
0.354167
0.358333
0.366667
0.350000
0.362500
0.358333
0.354167
0.358333
0.358333
0.362500
0.350000
0.362500
0.362500
0.354167
0.354167
0.362500
0.354167
0.358333
0.366667
0.350000
0.358333
0.362500
0.358333
0.358333
0.358333
0.358333
0.362500
0.345833
0.362500
0.362500
0.354167
0.358333
0.358333
0.350000
0.362500
0.362500
0.354167
0.362500
0.362500
0.358333
0.362500
0.358333
0.350000
0.362500
0.362500
0.350000
0.358333
0.362500
0.358333
0.354167
0.362500
0.354167
0.354167
0.358333
0.358333
0.354167
0.358333
0.358333
0.358333
0.358333
0.341667
0.354167
0.370833
0.362500
0.350000
0.358333
0.358333
0.358333
0.350000
0.362500
0.362500
0.350000
0.358333
0.354167
0.341667
0.354167
0.366667
0.358333
0.354167
0.358333
0.358333
0.358333
0.358333
0.358333
0.354167
0.354167
0.358333
0.358333
0.354167
0.358333
0.354167
0.354167
0.358333
0.354167
0.358333
0.354167
0.345833
0.358333
0.362500
0.354167
0.354167
0.362500
0.345833
0.358333
0.358333
0.354167
0.358333
0.350000
0.358333
0.358333
0.354167
0.354167
0.350000
0.358333
0.345833
0.362500
0.358333
0.350000
0.358333
0.358333
0.350000
0.354167
0.358333
0.358333
0.354167
0.354167
0.358333
0.354167
0.345833
0.358333
0.358333
0.354167
0.354167
0.350000
0.358333
0.350000
0.358333
0.358333
0.345833
0.362500
0.358333
0.354167
0.350000
0.354167
0.358333
0.354167
0.345833
0.362500
0.362500
0.350000
0.333333
0.320833
0.329167
0.320833
0.337500
0.541667
0.458333
1.679167
0.912500
0.983333
1.400000
0.983333
0.966667
0.925000
0.895833
0.962500
0.912500
1.258333
0.970833
0.958333
0.954167
0.950000
0.937500
0.945833
0.937500
