0.566667
0.566667
0.566667
0.570833
0.570833
0.579167
0.583333
0.587500
0.595833
0.595833
0.600000
0.600000
0.587500
0.120833
0.475000
0.225000
0.366667
0.591667
0.591667
0.595833
0.583333
0.600000
0.604167
0.604167
0.608333
0.612500
0.620833
0.595833
0.600000
0.595833
0.595833
0.583333
0.579167
0.579167
0.587500
0.587500
0.595833
0.583333
0.579167
0.591667
0.587500
0.583333
0.575000
0.575000
0.570833
0.575000
0.579167
0.579167
0.570833
0.575000
0.575000
0.575000
0.570833
0.570833
0.575000
0.575000
0.575000
0.575000
0.587500
0.579167
0.575000
0.575000
0.583333
0.575000
0.579167
0.579167
0.579167
0.579167
0.583333
0.587500
0.570833
0.583333
0.566667
0.583333
0.575000
0.570833
0.579167
0.579167
0.562500
0.275000
0.300000
0.566667
0.566667
0.562500
0.441667
0.679167
0.558333
0.550000
0.554167
0.554167
0.550000
0.550000
0.545833
0.550000
0.554167
0.554167
0.562500
0.558333
0.566667
0.570833
0.566667
0.566667
0.579167
0.570833
0.575000
0.570833
0.583333
0.575000
0.575000
0.570833
0.566667
0.570833
0.566667
0.566667
0.570833
0.570833
0.570833
0.575000
0.579167
0.579167
0.575000
0.583333
0.575000
0.575000
0.579167
0.579167
0.570833
0.575000
0.570833
0.575000
0.570833
0.570833
0.570833
0.570833
0.579167
0.570833
0.570833
0.566667
0.575000
0.579167
0.579167
0.575000
0.583333
0.587500
0.587500
0.591667
0.579167
0.583333
0.583333
0.591667
0.579167
0.587500
0.587500
0.595833
0.591667
0.591667
0.587500
0.587500
0.595833
0.591667
0.587500
0.358333
0.220833
0.579167
0.366667
0.216667
0.666667
1.062500
0.575000
0.570833
0.558333
0.562500
0.558333
0.554167
0.550000
0.554167
0.554167
0.550000
0.550000
0.554167
0.554167
0.554167
0.558333
0.558333
0.554167
0.558333
0.554167
0.562500
0.558333
0.558333
0.558333
0.562500
0.558333
0.562500
0.562500
0.566667
0.616667
0.391667
0.112500
0.562500
0.554167
0.554167
0.550000
0.545833
0.558333
0.566667
0.562500
0.562500
0.566667
0.562500
0.562500
0.566667
0.562500
0.570833
0.570833
0.570833
0.570833
0.566667
0.562500
0.583333
0.558333
0.558333
0.558333
0.562500
0.558333
0.554167
0.554167
0.562500
0.558333
0.558333
1.120833
0.562500
0.558333
0.558333
0.566667
0.566667
0.570833
0.570833
0.575000
0.579167
0.570833
0.575000
0.587500
0.579167
0.579167
0.575000
0.575000
0.579167
0.579167
0.575000
0.579167
0.579167
0.579167
0.575000
0.575000
0.575000
0.583333
0.583333
0.579167
0.583333
0.729167
0.383333
0.625000
0.570833
0.570833
0.570833
0.558333
0.558333
0.562500
0.562500
0.566667
0.554167
0.558333
0.558333
0.554167
0.558333
0.550000
0.558333
0.554167
0.558333
0.562500
0.554167
0.562500
0.554167
0.554167
0.554167
0.558333
0.550000
0.550000
0.229167
0.283333
0.595833
0.554167
0.550000
0.554167
0.558333
0.550000
0.550000
0.558333
0.554167
0.558333
0.558333
0.562500
0.562500
0.558333
0.554167
0.554167
0.558333
0.558333
0.554167
0.550000
0.562500
0.562500
0.566667
0.566667
0.562500
0.562500
0.566667
0.566667
0.570833
0.570833
0.579167
0.575000
0.579167
0.579167
0.579167
0.579167
0.587500
0.579167
0.579167
0.387500
0.195833
0.583333
0.570833
0.150000
0.425000
0.437500
0.683333
0.550000
0.558333
0.566667
0.541667
0.554167
0.545833
0.545833
0.550000
0.545833
0.550000
0.541667
0.541667
0.545833
0.550000
0.216667
0.329167
0.545833
0.545833
0.670833
0.420833
0.441667
0.645833
0.545833
0.550000
0.550000
0.550000
0.545833
0.541667
0.541667
0.550000
0.545833
0.545833
0.541667
0.545833
0.554167
0.550000
0.554167
0.550000
0.550000
0.558333
0.562500
0.562500
0.570833
0.566667
0.570833
0.562500
0.562500
0.562500
0.562500
0.554167
0.554167
0.550000
0.554167
0.550000
0.554167
0.554167
0.554167
0.558333
0.554167
0.558333
0.554167
0.550000
0.554167
0.554167
0.550000
0.558333
0.554167
0.554167
0.558333
0.558333
0.566667
0.558333
0.562500
0.562500
0.554167
0.566667
0.558333
0.554167
0.550000
0.554167
0.554167
0.554167
0.287500
0.554167
0.250000
0.545833
0.216667
0.879167
0.545833
0.541667
0.404167
0.670833
0.275000
0.262500
0.541667
0.537500
0.541667
0.541667
0.537500
0.537500
0.541667
0.533333
0.545833
0.537500
0.541667
0.545833
0.545833
0.545833
0.550000
0.550000
0.554167
0.550000
0.554167
0.550000
0.554167
0.550000
0.545833
0.554167
0.550000
0.554167
0.550000
0.550000
0.554167
0.550000
0.558333
0.554167
0.558333
0.554167
0.558333
0.562500
0.562500
0.570833
0.570833
0.575000
0.579167
0.575000
0.583333
0.579167
0.583333
0.579167
0.579167
0.579167
0.583333
0.579167
0.575000
0.579167
0.579167
0.587500
0.579167
0.583333
0.575000
0.583333
0.791667
0.358333
0.512500
0.054167
0.583333
0.350000
0.220833
0.566667
0.566667
0.566667
0.562500
0.558333
0.550000
0.554167
0.545833
0.550000
0.554167
0.495833
0.616667
0.541667
0.545833
0.541667
0.550000
0.545833
0.375000
0.166667
0.541667
0.550000
0.541667
0.541667
0.533333
0.550000
0.537500
0.550000
0.625000
0.566667
0.575000
0.416667
0.537500
0.545833
0.541667
0.541667
0.541667
0.541667
0.541667
0.541667
0.550000
0.545833
0.541667
0.550000
0.550000
0.550000
0.550000
0.562500
0.554167
0.554167
0.550000
0.550000
0.558333
0.562500
0.558333
0.550000
0.558333
0.558333
0.550000
0.550000
0.554167
0.558333
0.550000
0.558333
0.558333
0.566667
0.570833
0.566667
0.575000
0.566667
0.575000
0.558333
0.554167
0.241667
0.316667
0.562500
0.558333
0.554167
0.554167
0.554167
0.554167
0.554167
0.558333
0.558333
0.562500
0.433333
0.691667
0.566667
0.562500
0.562500
0.558333
0.562500
0.558333
0.558333
0.562500
0.562500
0.562500
0.558333
0.562500
0.566667
0.566667
0.566667
0.562500
0.575000
0.570833
0.566667
0.570833
0.575000
0.570833
0.570833
0.575000
0.570833
0.566667
0.575000
0.575000
0.570833
0.566667
0.570833
0.570833
0.579167
0.570833
0.579167
0.579167
0.325000
0.245833
0.566667
0.570833
0.562500
0.570833
0.566667
0.566667
0.566667
0.575000
0.562500
0.575000
0.570833
0.566667
0.566667
0.570833
0.566667
0.566667
0.566667
0.566667
0.566667
0.562500
0.570833
0.566667
0.579167
0.579167
0.570833
0.570833
0.575000
0.575000
0.566667
0.566667
0.570833
0.575000
0.570833
0.575000
0.575000
0.575000
0.579167
0.570833
0.570833
0.575000
0.575000
0.566667
0.575000
0.587500
0.579167
0.575000
0.575000
0.579167
0.570833
0.566667
0.575000
0.575000
0.570833
0.579167
0.583333
0.579167
0.579167
0.579167
0.204167
0.950000
0.575000
0.566667
0.570833
0.570833
0.570833
0.554167
0.566667
0.562500
0.554167
0.554167
0.550000
0.554167
0.554167
0.550000
0.550000
0.541667
0.545833
0.554167
0.550000
0.545833
0.550000
0.550000
0.554167
0.545833
0.545833
0.545833
0.541667
0.541667
0.545833
0.550000
0.545833
0.541667
0.545833
0.545833
0.541667
0.545833
0.550000
0.550000
0.558333
0.550000
0.554167
0.558333
0.554167
0.558333
0.550000
0.558333
0.550000
0.558333
0.558333
0.566667
0.566667
0.425000
0.700000
0.583333
0.554167
0.350000
0.212500
0.566667
0.687500
0.429167
0.558333
0.558333
0.554167
0.554167
0.554167
0.550000
0.550000
0.545833
0.554167
0.550000
0.550000
0.550000
0.554167
0.550000
0.554167
0.558333
0.550000
0.558333
0.562500
0.554167
0.562500
0.554167
0.562500
0.566667
0.570833
0.570833
0.570833
0.575000
0.579167
0.579167
0.575000
0.579167
0.575000
0.579167
0.575000
0.579167
0.570833
0.579167
0.575000
0.579167
0.579167
0.579167
0.579167
0.579167
0.583333
0.579167
0.579167
0.583333
0.587500
0.579167
0.583333
0.575000
0.579167
0.583333
0.583333
0.575000
0.579167
0.575000
0.579167
0.575000
0.579167
0.570833
0.579167
0.583333
0.575000
0.579167
0.575000
0.587500
0.579167
0.575000
0.575000
0.579167
0.579167
0.579167
0.583333
0.579167
0.575000
0.575000
0.333333
0.245833
0.583333
0.575000
0.579167
0.587500
0.583333
0.583333
0.583333
0.575000
0.587500
0.579167
0.575000
0.575000
0.575000
0.575000
0.570833
0.570833
0.575000
0.575000
0.575000
0.575000
0.575000
0.400000
0.750000
0.125000
0.450000
0.570833
0.566667
0.558333
0.562500
0.558333
0.558333
0.558333
0.558333
0.562500
0.554167
0.554167
0.558333
0.566667
0.558333
0.562500
0.566667
0.562500
0.558333
0.550000
0.554167
0.550000
0.550000
0.554167
0.554167
0.558333
0.554167
0.562500
0.558333
0.554167
0.562500
0.558333
0.562500
0.554167
0.562500
0.566667
0.112500
0.458333
0.562500
0.562500
0.566667
0.558333
0.562500
0.558333
0.708333
0.404167
0.558333
0.554167
0.550000
0.554167
0.554167
0.550000
0.554167
0.545833
0.550000
0.541667
0.541667
0.541667
0.537500
0.545833
0.541667
0.541667
0.537500
0.541667
0.541667
0.541667
0.575000
0.233333
0.270833
0.541667
0.545833
0.541667
0.541667
0.545833
0.550000
0.545833
0.550000
0.545833
0.554167
0.550000
0.554167
0.550000
0.554167
0.554167
0.558333
0.558333
0.554167
0.558333
0.450000
0.658333
0.558333
0.558333
0.562500
0.554167
0.545833
0.545833
0.441667
0.645833
0.541667
0.537500
0.537500
0.537500
0.541667
0.533333
0.537500
0.537500
0.537500
0.545833
0.537500
0.541667
0.541667
0.545833
0.541667
0.545833
0.541667
0.541667
0.541667
0.545833
0.545833
0.541667
0.541667
0.550000
0.558333
0.554167
0.554167
0.554167
0.558333
0.566667
0.562500
0.570833
0.562500
0.562500
0.562500
0.562500
0.566667
0.562500
0.558333
0.554167
0.670833
0.187500
0.266667
0.562500
0.550000
0.445833
0.650000
0.550000
0.550000
0.545833
0.541667
0.545833
0.537500
0.537500
0.470833
0.595833
0.533333
0.533333
0.529167
0.533333
0.533333
0.533333
0.537500
0.529167
0.533333
0.541667
0.541667
0.545833
0.545833
0.541667
0.545833
0.541667
0.545833
0.687500
0.404167
0.537500
0.541667
0.541667
0.537500
0.541667
0.545833
0.545833
0.550000
0.545833
0.541667
0.545833
0.545833
0.545833
0.537500
0.541667
0.537500
0.545833
0.541667
0.541667
0.541667
0.545833
0.545833
0.550000
0.550000
0.550000
0.558333
0.558333
0.550000
0.550000
0.550000
0.550000
0.550000
0.541667
0.545833
0.537500
0.654167
0.412500
0.537500
0.529167
0.529167
0.533333
0.533333
0.529167
0.541667
0.537500
0.533333
0.537500
0.533333
0.537500
0.533333
0.529167
0.537500
0.537500
0.541667
0.533333
0.533333
0.537500
0.537500
0.533333
0.533333
0.541667
0.533333
0.541667
0.537500
0.533333
0.533333
0.537500
0.533333
0.533333
0.529167
0.537500
0.529167
0.537500
0.220833
0.304167
0.083333
0.454167
0.533333
0.529167
0.529167
0.533333
0.529167
0.533333
0.529167
0.529167
0.533333
0.529167
0.529167
0.533333
0.529167
0.541667
0.537500
0.533333
0.537500
0.541667
0.541667
0.554167
0.541667
0.550000
0.545833
0.545833
0.537500
0.541667
0.537500
0.537500
0.533333
0.533333
0.533333
0.533333
0.529167
0.529167
0.533333
0.533333
0.525000
0.529167
0.533333
0.533333
0.533333
0.533333
