0.550000
0.554167
0.554167
0.554167
0.554167
0.558333
0.554167
0.550000
0.558333
0.562500
0.554167
0.550000
0.550000
0.562500
0.550000
0.550000
0.550000
0.558333
0.558333
0.550000
0.550000
0.554167
0.554167
0.554167
0.550000
0.562500
0.554167
0.550000
0.550000
0.558333
0.554167
0.550000
0.550000
0.558333
0.554167
0.550000
0.550000
0.562500
0.550000
0.550000
0.550000
0.562500
0.550000
0.550000
0.550000
0.558333
0.554167
0.550000
0.554167
0.554167
0.550000
0.554167
0.554167
0.550000
0.550000
0.558333
0.554167
0.550000
0.558333
0.554167
0.558333
0.558333
0.554167
0.562500
0.558333
0.554167
0.562500
0.558333
0.487500
0.629167
0.562500
0.570833
0.562500
0.554167
0.562500
0.566667
0.558333
0.558333
0.566667
0.558333
0.554167
0.562500
0.562500
0.558333
0.554167
0.558333
0.558333
0.554167
0.554167
0.554167
0.566667
0.554167
0.554167
0.550000
0.558333
0.554167
0.550000
0.550000
0.562500
0.554167
0.550000
0.550000
0.562500
0.554167
0.550000
0.550000
0.558333
0.554167
0.550000
0.550000
0.554167
0.558333
0.550000
0.550000
0.545833
0.645833
0.425000
0.583333
0.545833
0.466667
0.341667
0.287500
0.554167
0.087500
0.220833
0.387500
0.400000
0.545833
0.545833
0.770833
0.325000
0.554167
0.683333
0.412500
0.545833
0.554167
0.329167
0.220833
0.550000
0.545833
0.562500
0.554167
0.541667
0.550000
0.558333
0.550000
0.545833
0.554167
0.558333
0.550000
0.545833
0.550000
0.545833
0.541667
0.545833
0.558333
0.541667
0.541667
0.550000
0.554167
0.541667
0.550000
0.541667
0.562500
0.533333
0.541667
0.545833
0.550000
0.545833
0.537500
0.550000
0.312500
0.241667
0.541667
0.541667
0.545833
0.550000
0.545833
0.541667
0.545833
0.550000
0.550000
0.541667
0.545833
0.550000
0.550000
0.541667
0.545833
0.550000
0.545833
0.541667
0.550000
0.550000
0.550000
0.545833
0.545833
0.550000
0.550000
0.545833
0.545833
0.550000
0.558333
0.550000
0.545833
0.550000
0.554167
0.550000
0.545833
0.545833
0.554167
0.562500
0.550000
0.554167
0.554167
0.558333
0.558333
0.554167
0.554167
0.562500
0.562500
0.554167
0.554167
0.558333
0.566667
0.558333
0.554167
0.554167
0.562500
0.558333
0.558333
0.554167
0.558333
0.566667
0.554167
0.554167
0.554167
0.562500
0.558333
0.554167
0.550000
0.558333
0.566667
0.554167
0.554167
0.558333
0.562500
0.558333
0.550000
0.558333
0.566667
0.554167
0.554167
0.554167
0.562500
0.558333
0.554167
0.558333
0.562500
0.558333
0.554167
0.558333
0.562500
0.558333
0.554167
0.558333
0.566667
0.558333
0.554167
0.562500
0.562500
0.558333
0.558333
0.566667
0.558333
0.554167
0.558333
0.562500
0.558333
0.550000
0.558333
0.558333
0.550000
0.554167
0.562500
0.554167
0.554167
0.554167
0.558333
0.554167
0.554167
0.562500
0.554167
0.554167
0.558333
0.554167
0.554167
0.558333
0.554167
0.550000
0.554167
0.554167
0.558333
0.550000
0.558333
0.558333
0.562500
0.554167
0.558333
0.570833
0.554167
0.558333
0.558333
0.570833
0.562500
0.558333
0.562500
0.566667
0.562500
0.562500
0.566667
0.566667
0.475000
0.650000
0.570833
0.566667
0.558333
0.562500
0.566667
0.562500
0.554167
0.558333
0.566667
0.558333
0.550000
0.558333
0.566667
0.554167
0.554167
0.554167
0.562500
0.554167
0.550000
0.554167
0.562500
0.550000
0.550000
0.550000
0.562500
0.550000
0.545833
0.550000
0.558333
0.550000
0.545833
0.550000
0.558333
0.550000
0.550000
0.550000
0.554167
0.558333
0.554167
0.554167
0.404167
0.545833
0.333333
0.387500
0.337500
0.216667
0.241667
0.312500
0.554167
0.475000
0.633333
0.554167
0.554167
0.666667
0.445833
0.566667
0.554167
0.554167
0.558333
0.570833
0.562500
0.554167
0.554167
0.558333
0.558333
0.554167
0.558333
0.562500
0.554167
0.550000
0.558333
0.558333
0.550000
0.550000
0.558333
0.550000
0.545833
0.554167
0.554167
0.550000
0.550000
0.558333
0.550000
0.550000
0.550000
0.554167
0.545833
0.550000
0.558333
0.550000
0.550000
0.550000
0.554167
0.550000
0.550000
0.558333
0.554167
0.550000
0.554167
0.554167
0.562500
0.554167
0.558333
0.554167
0.558333
0.562500
0.558333
0.554167
0.558333
0.566667
0.558333
0.554167
0.562500
0.566667
0.558333
0.558333
0.562500
0.558333
0.562500
0.554167
0.566667
0.558333
0.558333
0.558333
0.570833
0.558333
0.554167
0.562500
0.566667
0.558333
0.554167
0.558333
0.566667
0.558333
0.558333
0.558333
0.562500
0.562500
0.554167
0.558333
0.562500
0.558333
0.558333
0.554167
0.566667
0.441667
0.650000
0.566667
0.345833
0.329167
0.625000
0.375000
0.558333
0.558333
0.562500
0.558333
0.550000
0.562500
0.558333
0.554167
0.550000
0.562500
0.554167
0.554167
0.550000
0.562500
0.554167
0.550000
0.554167
0.558333
0.554167
0.550000
0.550000
0.558333
0.554167
0.550000
0.550000
0.554167
0.554167
0.545833
0.554167
0.558333
0.550000
0.550000
0.550000
0.558333
0.550000
0.550000
0.562500
0.554167
0.550000
0.558333
0.554167
0.550000
0.562500
0.554167
0.550000
0.558333
0.554167
0.554167
0.558333
0.554167
0.550000
0.558333
0.554167
0.550000
0.558333
0.558333
0.554167
0.554167
0.558333
0.554167
0.554167
0.554167
0.566667
0.558333
0.554167
0.562500
0.558333
0.558333
0.558333
0.570833
0.558333
0.554167
0.562500
0.562500
0.554167
0.562500
0.558333
0.558333
0.558333
0.562500
0.575000
0.541667
0.554167
0.562500
0.566667
0.554167
0.558333
0.554167
0.566667
0.554167
0.558333
0.566667
0.558333
0.558333
0.558333
0.566667
0.558333
0.562500
0.558333
0.566667
0.562500
0.562500
0.562500
0.570833
0.562500
0.562500
0.570833
0.562500
0.562500
0.562500
0.570833
0.562500
0.562500
0.570833
0.562500
0.562500
0.566667
0.562500
0.558333
0.570833
0.562500
0.558333
0.566667
0.562500
0.562500
0.562500
0.558333
0.566667
0.558333
0.558333
0.562500
0.570833
0.562500
0.554167
0.562500
0.566667
0.558333
0.558333
0.566667
0.558333
0.554167
0.562500
0.558333
0.558333
0.558333
0.566667
0.558333
0.558333
0.562500
0.558333
0.554167
0.562500
0.558333
0.558333
0.562500
0.558333
0.554167
0.562500
0.558333
0.558333
0.558333
0.562500
0.558333
0.558333
0.562500
0.566667
0.558333
0.562500
0.566667
0.562500
0.554167
0.562500
0.562500
0.554167
0.562500
0.558333
0.558333
0.566667
0.558333
0.554167
0.562500
0.562500
0.558333
0.558333
0.566667
0.562500
0.554167
0.670833
0.312500
0.375000
0.320833
0.562500
0.558333
0.558333
0.558333
0.558333
0.562500
0.558333
0.558333
0.550000
0.300000
0.262500
0.558333
0.554167
0.554167
0.562500
0.554167
0.554167
0.554167
0.562500
0.554167
0.554167
0.420833
0.691667
0.229167
0.325000
0.554167
0.554167
0.562500
0.558333
0.554167
0.558333
0.558333
0.562500
0.562500
0.558333
0.566667
0.558333
0.562500
0.570833
0.562500
0.304167
0.254167
0.558333
0.570833
0.558333
0.562500
0.570833
0.562500
0.558333
0.562500
0.570833
0.562500
0.558333
0.562500
0.566667
0.558333
0.558333
0.558333
0.570833
0.558333
0.554167
0.554167
0.566667
0.554167
0.550000
0.554167
0.566667
0.550000
0.550000
0.554167
0.558333
0.550000
0.554167
0.550000
0.554167
0.562500
0.550000
0.558333
0.550000
0.554167
0.558333
0.554167
0.550000
0.554167
0.558333
0.562500
0.554167
0.554167
0.558333
0.566667
0.562500
0.641667
0.262500
0.445833
0.237500
0.645833
0.562500
0.562500
0.570833
0.558333
0.562500
0.566667
0.566667
0.575000
0.562500
0.591667
0.533333
0.579167
0.083333
1.075000
0.583333
0.595833
0.229167
0.341667
0.625000
0.400000
0.195833
0.608333
0.604167
0.608333
0.612500
0.604167
0.591667
0.337500
0.637500
0.812500
0.358333
0.600000
0.254167
0.350000
0.437500
0.575000
0.333333
0.604167
0.850000
0.500000
0.433333
0.070833
0.604167
0.554167
0.091667
0.245833
0.229167
0.645833
0.129167
0.579167
0.566667
0.625000
0.850000
0.554167
0.558333
0.350000
0.204167
1.070833
1.162500
0.550000
0.558333
0.562500
0.558333
0.554167
0.550000
0.558333
0.562500
0.550000
0.554167
0.550000
0.558333
0.558333
0.550000
0.550000
0.554167
0.562500
0.550000
0.550000
0.550000
0.558333
0.550000
0.545833
0.550000
0.554167
0.545833
0.545833
0.550000
0.550000
0.550000
0.545833
0.545833
0.545833
0.554167
0.550000
0.545833
0.545833
0.550000
0.550000
0.545833
0.395833
0.708333
0.537500
0.270833
0.275000
0.554167
0.545833
0.541667
0.545833
0.554167
0.554167
0.554167
0.545833
0.554167
0.550000
0.550000
0.550000
0.554167
0.558333
0.550000
0.550000
0.554167
0.554167
0.550000
0.545833
0.554167
0.554167
0.545833
0.545833
0.550000
0.554167
0.554167
0.545833
0.545833
0.550000
0.554167
0.545833
0.545833
0.550000
0.550000
0.558333
0.550000
0.545833
0.550000
0.558333
0.550000
0.545833
0.550000
0.558333
0.554167
0.545833
0.554167
0.558333
0.554167
0.545833
0.554167
0.550000
0.554167
0.550000
0.558333
0.550000
0.550000
0.554167
0.558333
0.550000
0.550000
0.554167
0.558333
0.550000
0.550000
0.554167
0.550000
0.550000
0.550000
0.562500
0.550000
0.545833
0.554167
0.550000
0.550000
0.545833
0.554167
0.550000
0.550000
0.545833
0.554167
0.545833
0.545833
0.550000
0.554167
0.550000
0.541667
0.550000
0.554167
0.550000
0.541667
0.550000
0.554167
0.550000
0.545833
0.554167
0.554167
0.554167
0.554167
0.562500
0.558333
0.558333
0.570833
0.570833
0.570833
0.575000
0.579167
0.591667
0.591667
0.591667
0.600000
0.595833
0.600000
0.612500
0.595833
0.604167
0.604167
0.595833
0.604167
0.600000
0.587500
0.591667
0.600000
0.591667
0.587500
0.595833
0.587500
0.591667
0.591667
0.595833
0.587500
0.587500
0.587500
0.583333
0.579167
0.583333
0.579167
0.575000
0.579167
0.570833
0.575000
0.575000
0.575000
0.566667
0.566667
0.575000
0.566667
0.562500
0.566667
0.575000
0.562500
0.562500
0.566667
0.570833
0.562500
0.562500
0.570833
0.562500
0.562500
0.575000
0.579167
0.575000
0.579167
0.591667
0.583333
0.579167
0.583333
0.591667
0.587500
0.591667
0.608333
0.616667
0.612500
0.479167
0.579167
0.812500
0.629167
0.633333
0.633333
0.620833
0.625000
0.625000
0.612500
0.608333
0.608333
0.600000
0.595833
0.595833
0.591667
0.587500
0.579167
0.583333
0.583333
0.575000
0.566667
0.570833
0.575000
0.566667
0.558333
0.566667
0.562500
0.558333
0.558333
0.558333
0.554167
0.550000
0.554167
0.558333
0.550000
0.341667
0.208333
0.558333
0.554167
0.550000
0.316667
0.233333
0.554167
0.558333
0.554167
0.550000
0.554167
0.558333
0.550000
0.554167
0.554167
0.558333
0.550000
0.554167
0.554167
0.550000
0.550000
0.554167
0.554167
0.550000
0.545833
0.550000
0.562500
0.545833
0.545833
0.558333
0.545833
0.550000
0.550000
0.562500
0.550000
0.550000
0.537500
0.204167
0.362500
0.550000
0.550000
0.554167
0.587500
0.512500
0.554167
0.554167
0.554167
0.550000
0.554167
0.554167
0.554167
0.545833
0.554167
0.554167
0.550000
0.550000
0.558333
0.550000
0.550000
0.554167
0.562500
0.550000
0.550000
