0.545833
0.545833
0.550000
0.545833
0.545833
0.550000
0.541667
0.550000
0.550000
0.550000
0.545833
0.550000
0.550000
0.550000
0.554167
0.550000
0.550000
0.550000
0.558333
0.554167
0.550000
0.554167
0.554167
0.554167
0.550000
0.545833
1.104167
0.550000
0.550000
0.550000
0.558333
0.550000
0.554167
0.554167
0.554167
0.554167
0.554167
0.554167
0.558333
0.554167
0.558333
0.558333
0.558333
0.562500
0.562500
0.562500
0.558333
0.562500
0.562500
0.558333
0.562500
0.562500
0.562500
0.558333
0.562500
0.562500
0.562500
0.570833
0.562500
0.566667
0.566667
0.562500
0.566667
0.566667
0.562500
0.562500
0.562500
0.562500
0.566667
0.562500
0.562500
0.562500
0.562500
0.562500
0.566667
0.562500
0.562500
0.562500
0.558333
0.566667
0.491667
0.629167
0.562500
0.566667
0.562500
0.566667
0.562500
0.562500
0.570833
0.562500
0.562500
0.562500
0.566667
0.566667
0.566667
0.566667
0.562500
0.570833
0.562500
0.566667
0.562500
0.562500
0.566667
0.562500
0.558333
0.558333
0.558333
0.558333
0.558333
0.558333
0.558333
0.550000
0.558333
0.558333
0.554167
0.558333
0.554167
0.558333
0.545833
0.566667
0.566667
0.566667
0.562500
0.562500
0.566667
0.562500
0.562500
0.566667
0.562500
0.562500
0.558333
0.558333
0.554167
0.558333
0.550000
0.550000
0.554167
0.545833
0.550000
0.545833
0.545833
0.541667
0.537500
0.537500
0.541667
0.537500
0.537500
0.537500
0.537500
0.533333
0.537500
0.533333
0.537500
0.291667
0.245833
0.529167
0.533333
0.441667
0.629167
0.533333
0.529167
0.537500
0.533333
0.533333
0.529167
0.533333
0.537500
0.533333
0.533333
0.533333
0.533333
0.533333
0.533333
0.533333
0.533333
0.529167
0.533333
0.533333
0.529167
0.529167
0.533333
0.529167
0.529167
0.529167
0.529167
0.529167
0.529167
0.529167
0.529167
0.529167
0.529167
0.529167
0.525000
0.529167
0.525000
0.529167
0.525000
0.525000
0.529167
0.525000
0.525000
0.525000
0.529167
0.529167
0.525000
0.529167
0.529167
0.529167
0.529167
0.529167
0.533333
0.529167
0.533333
0.529167
0.533333
0.529167
0.537500
0.533333
0.533333
0.533333
0.537500
0.537500
0.541667
0.541667
0.537500
0.541667
0.537500
0.541667
0.541667
0.537500
0.541667
0.537500
0.541667
0.541667
0.537500
0.537500
0.537500
0.537500
0.537500
0.537500
0.533333
0.537500
0.537500
0.533333
0.537500
0.537500
0.533333
0.537500
0.533333
0.537500
0.537500
0.537500
0.541667
0.541667
0.541667
0.537500
0.541667
0.545833
0.545833
0.541667
0.545833
0.541667
0.283333
0.262500
0.541667
0.545833
0.545833
0.541667
0.545833
0.541667
0.545833
0.545833
0.541667
0.545833
0.541667
0.541667
0.545833
0.541667
0.545833
0.541667
0.541667
0.541667
0.541667
0.541667
0.541667
0.541667
0.541667
0.541667
0.537500
0.541667
0.545833
0.541667
0.545833
0.541667
0.545833
0.545833
0.545833
0.545833
0.545833
0.545833
0.545833
0.545833
0.545833
0.550000
0.545833
0.545833
0.545833
0.541667
0.545833
0.550000
0.545833
0.550000
0.545833
0.541667
0.545833
1.091667
0.545833
0.545833
0.545833
0.550000
0.545833
0.545833
0.545833
0.545833
0.550000
0.550000
0.545833
0.550000
0.545833
0.545833
0.554167
0.545833
0.550000
0.550000
0.545833
0.545833
0.545833
0.550000
0.545833
0.541667
0.545833
0.545833
0.545833
0.545833
0.550000
0.545833
0.545833
0.541667
0.550000
0.550000
0.550000
0.545833
0.550000
0.545833
0.554167
0.550000
0.554167
0.554167
0.554167
0.554167
0.554167
0.558333
0.554167
0.558333
0.554167
0.558333
0.554167
0.558333
0.554167
0.558333
0.554167
0.554167
0.550000
0.558333
1.108333
0.550000
0.550000
0.550000
0.550000
0.554167
0.550000
0.554167
0.550000
0.550000
0.550000
0.550000
0.550000
0.550000
0.550000
0.550000
0.550000
0.550000
0.550000
0.550000
0.550000
0.550000
0.554167
0.550000
0.550000
0.554167
0.554167
0.554167
0.554167
0.554167
0.558333
0.558333
0.558333
0.558333
0.558333
0.562500
0.558333
0.554167
0.562500
0.558333
0.558333
0.558333
0.554167
0.558333
0.562500
0.554167
0.558333
0.558333
0.554167
0.562500
0.558333
0.558333
0.558333
0.558333
0.562500
0.558333
0.562500
0.562500
0.558333
0.558333
0.558333
0.558333
0.554167
0.558333
0.562500
0.554167
0.558333
0.558333
0.566667
1.129167
0.562500
0.562500
0.562500
0.566667
0.562500
0.566667
0.558333
0.566667
0.566667
0.566667
0.566667
0.566667
0.566667
0.566667
0.570833
0.566667
0.570833
0.566667
0.566667
0.566667
0.566667
0.570833
0.570833
0.566667
0.566667
0.566667
0.562500
0.566667
0.562500
0.562500
0.562500
0.562500
0.558333
0.558333
0.562500
0.558333
0.558333
0.558333
0.558333
0.558333
0.558333
0.562500
0.558333
0.558333
0.558333
0.562500
0.558333
0.558333
0.562500
0.554167
0.558333
0.558333
0.558333
0.554167
0.554167
0.554167
0.554167
0.558333
0.554167
0.558333
0.554167
0.554167
0.554167
0.554167
0.554167
0.554167
0.554167
0.558333
0.554167
0.554167
0.558333
0.554167
0.558333
0.554167
0.558333
0.554167
0.550000
0.558333
0.554167
0.554167
0.554167
0.554167
0.554167
0.558333
0.554167
0.558333
0.554167
0.554167
0.558333
0.554167
0.558333
0.554167
0.558333
0.558333
0.554167
0.558333
0.562500
0.558333
0.558333
0.558333
0.558333
0.558333
0.558333
0.562500
0.558333
0.558333
0.558333
1.112500
0.558333
0.562500
0.558333
0.558333
0.554167
0.558333
0.554167
0.358333
0.695833
0.575000
0.562500
0.554167
0.554167
0.558333
0.554167
0.550000
0.554167
0.550000
1.095833
0.550000
0.550000
0.550000
0.545833
0.550000
0.545833
0.541667
0.558333
0.554167
0.550000
0.550000
0.550000
0.554167
0.554167
0.554167
0.554167
0.554167
0.554167
0.554167
0.558333
0.554167
0.554167
0.558333
0.554167
0.554167
0.554167
0.558333
0.554167
0.550000
0.554167
0.550000
0.550000
0.554167
0.550000
0.550000
0.550000
0.550000
0.550000
0.554167
0.550000
0.554167
0.550000
0.545833
0.550000
0.550000
0.550000
0.550000
0.550000
0.545833
0.550000
0.550000
0.550000
0.550000
0.545833
0.550000
0.545833
0.550000
0.550000
0.550000
0.550000
0.545833
0.550000
0.550000
0.554167
0.550000
0.550000
0.545833
0.545833
0.554167
0.550000
0.545833
0.554167
0.550000
0.550000
0.550000
0.554167
0.554167
0.554167
0.554167
0.554167
0.554167
0.554167
0.558333
0.558333
0.558333
0.558333
0.558333
0.558333
0.558333
0.558333
0.562500
0.558333
0.558333
0.558333
0.558333
0.558333
0.558333
0.558333
0.554167
0.558333
0.558333
0.554167
0.558333
0.550000
0.554167
0.554167
0.550000
0.558333
0.554167
0.554167
0.550000
0.550000
0.554167
0.554167
0.550000
0.550000
0.550000
0.554167
0.554167
0.550000
0.554167
0.550000
0.550000
0.554167
0.550000
0.554167
0.554167
0.554167
0.554167
0.550000
0.550000
0.554167
0.554167
0.554167
0.554167
0.550000
0.550000
0.554167
0.554167
0.554167
0.550000
0.554167
0.550000
0.550000
0.554167
0.554167
0.550000
0.554167
0.554167
0.550000
0.554167
0.554167
0.558333
0.554167
0.554167
0.558333
0.554167
0.558333
0.558333
0.558333
0.454167
0.637500
0.562500
0.558333
0.562500
0.562500
0.558333
0.562500
0.558333
0.554167
0.558333
0.558333
0.558333
0.554167
0.554167
0.554167
0.554167
0.558333
0.554167
0.554167
0.550000
0.550000
0.554167
0.550000
0.554167
1.108333
0.550000
0.554167
0.550000
0.558333
0.550000
0.554167
0.550000
0.550000
0.550000
0.550000
0.550000
0.550000
0.550000
0.550000
0.545833
0.550000
0.550000
0.550000
0.550000
0.550000
0.545833
0.545833
0.550000
0.550000
0.554167
0.550000
0.550000
0.550000
0.545833
0.554167
0.550000
0.550000
0.554167
0.545833
0.554167
0.554167
0.554167
0.554167
0.558333
0.554167
0.554167
0.558333
0.558333
0.558333
0.562500
0.558333
0.562500
0.562500
0.562500
0.562500
0.566667
0.558333
0.562500
0.562500
0.562500
0.558333
0.562500
0.554167
0.558333
0.558333
0.558333
0.554167
0.554167
0.554167
0.550000
0.554167
0.558333
0.558333
0.554167
0.437500
0.641667
0.558333
0.562500
0.554167
0.558333
0.554167
0.458333
0.629167
0.562500
0.562500
0.558333
0.558333
0.558333
0.554167
0.558333
0.562500
0.554167
0.558333
0.554167
0.558333
0.554167
0.558333
0.558333
0.554167
0.558333
0.558333
0.554167
0.558333
0.558333
0.558333
0.558333
0.558333
0.554167
0.554167
0.558333
0.558333
0.554167
0.554167
0.554167
0.554167
0.554167
0.558333
0.554167
0.554167
0.554167
0.554167
0.550000
0.558333
0.554167
0.445833
0.466667
0.720833
0.554167
0.550000
0.550000
0.550000
0.550000
0.550000
0.545833
0.554167
0.550000
0.554167
0.554167
0.554167
0.554167
0.558333
0.558333
0.562500
0.558333
0.558333
0.554167
0.558333
0.558333
0.562500
0.558333
0.562500
0.558333
0.558333
0.562500
0.562500
0.562500
0.562500
0.558333
0.562500
0.562500
0.562500
0.562500
0.558333
0.562500
0.558333
0.558333
0.554167
0.558333
0.554167
0.554167
0.550000
0.550000
0.550000
0.554167
0.550000
0.550000
0.550000
0.550000
0.554167
0.554167
0.550000
0.554167
0.550000
0.545833
0.550000
0.554167
0.550000
0.554167
0.550000
0.550000
0.550000
0.554167
0.554167
1.104167
0.550000
0.550000
0.554167
0.554167
0.550000
0.550000
0.550000
0.550000
0.550000
0.554167
0.550000
0.554167
0.550000
0.554167
0.550000
0.558333
0.550000
0.554167
0.550000
0.550000
0.545833
0.550000
0.554167
0.550000
0.545833
0.550000
0.545833
0.545833
0.545833
0.550000
0.545833
0.545833
0.545833
0.545833
0.550000
0.550000
0.550000
0.550000
0.554167
0.545833
0.550000
0.554167
0.550000
0.550000
0.554167
0.545833
0.550000
0.550000
0.550000
0.550000
0.550000
0.550000
0.545833
0.550000
0.554167
0.550000
0.545833
0.550000
0.545833
0.545833
0.550000
0.545833
0.550000
0.545833
0.545833
0.545833
0.545833
0.545833
0.550000
0.545833
0.550000
0.550000
0.550000
0.550000
0.554167
0.554167
0.554167
0.550000
0.550000
0.554167
0.550000
0.554167
0.545833
0.550000
0.550000
0.550000
0.545833
0.550000
0.550000
0.545833
0.550000
0.545833
0.545833
0.545833
0.550000
0.545833
0.545833
0.545833
0.545833
0.545833
0.550000
0.545833
0.545833
0.541667
0.545833
0.541667
0.545833
0.545833
0.541667
0.541667
0.545833
0.541667
0.545833
0.545833
0.545833
0.545833
0.541667
0.545833
0.545833
0.550000
0.545833
0.550000
0.545833
0.550000
0.545833
0.550000
0.554167
0.550000
0.550000
0.550000
0.550000
0.550000
0.554167
0.550000
0.554167
0.550000
0.550000
0.545833
0.554167
0.554167
0.554167
0.554167
0.554167
0.554167
0.558333
0.558333
0.558333
0.558333
0.554167
0.554167
0.554167
0.554167
0.558333
0.554167
0.554167
0.554167
0.554167
0.550000
0.558333
0.550000
0.554167
0.550000
0.554167
0.550000
0.554167
0.554167
0.550000
0.554167
0.550000
0.554167
0.554167
0.554167
0.554167
0.554167
0.554167
0.554167
0.550000
0.554167
