0.262500
0.250000
0.500000
0.516667
0.512500
0.512500
0.508333
0.512500
0.500000
0.516667
0.512500
0.516667
0.508333
0.520833
0.516667
0.516667
0.512500
0.512500
0.512500
0.512500
0.512500
0.516667
0.512500
0.508333
0.512500
0.516667
0.520833
0.508333
0.512500
0.512500
0.516667
0.512500
0.516667
0.516667
0.516667
0.516667
0.512500
0.516667
0.525000
0.529167
0.520833
0.516667
0.520833
0.525000
1.066667
0.529167
0.320833
0.208333
0.516667
0.516667
0.516667
0.525000
0.520833
0.512500
0.512500
0.516667
0.512500
0.516667
0.508333
0.512500
0.516667
0.516667
0.516667
0.512500
0.512500
0.512500
0.512500
0.512500
0.520833
0.512500
0.508333
0.512500
0.512500
0.512500
0.512500
0.570833
0.450000
0.520833
0.525000
0.525000
0.516667
0.520833
0.516667
0.512500
0.512500
0.516667
0.512500
0.516667
0.508333
0.516667
0.512500
0.508333
0.512500
0.512500
0.512500
0.512500
0.520833
0.520833
0.516667
0.520833
0.520833
0.525000
0.516667
0.508333
0.520833
0.520833
0.525000
0.525000
0.516667
0.525000
0.533333
0.529167
0.516667
0.525000
0.516667
0.525000
0.516667
0.516667
0.516667
0.520833
0.525000
0.525000
0.516667
0.520833
0.516667
0.529167
0.520833
0.512500
0.525000
0.520833
0.529167
0.520833
0.525000
0.516667
0.516667
0.520833
0.516667
0.516667
0.525000
0.525000
0.520833
0.525000
0.520833
0.520833
0.520833
0.520833
0.520833
0.520833
0.520833
0.520833
0.516667
0.512500
0.516667
0.520833
0.529167
0.520833
0.516667
0.525000
0.520833
0.529167
0.533333
0.525000
0.516667
0.525000
0.525000
0.520833
0.520833
0.516667
0.520833
0.520833
0.520833
0.512500
0.520833
0.525000
0.520833
0.516667
0.512500
0.525000
0.529167
0.529167
0.533333
0.525000
0.525000
0.541667
0.545833
0.537500
0.537500
0.529167
0.525000
0.529167
0.525000
0.529167
0.520833
0.516667
0.525000
0.520833
0.533333
0.520833
0.525000
0.525000
0.525000
0.520833
0.529167
0.525000
0.516667
0.533333
0.525000
0.516667
0.525000
0.525000
0.525000
0.525000
0.708333
0.350000
0.541667
0.691667
0.987500
0.537500
0.541667
0.541667
0.525000
0.525000
0.525000
0.520833
0.516667
0.516667
0.525000
0.512500
0.525000
0.512500
0.520833
0.520833
0.516667
0.516667
0.520833
0.525000
0.520833
0.529167
0.520833
0.525000
0.525000
0.520833
0.537500
0.525000
0.520833
0.529167
0.529167
0.525000
0.529167
0.529167
0.525000
0.533333
0.533333
0.537500
0.529167
0.520833
0.529167
0.529167
0.525000
0.520833
0.795833
0.262500
0.529167
0.370833
0.270833
0.404167
0.545833
0.541667
0.541667
0.537500
0.541667
0.529167
0.525000
0.533333
0.529167
0.516667
0.516667
0.525000
0.520833
0.512500
0.512500
0.525000
0.520833
0.516667
0.520833
0.525000
0.525000
0.529167
0.520833
0.512500
0.525000
0.520833
0.520833
0.512500
0.520833
0.516667
0.520833
0.520833
0.516667
0.520833
0.525000
0.529167
0.520833
0.520833
0.533333
0.529167
1.045833
0.525000
0.525000
0.525000
0.520833
0.525000
0.516667
0.537500
0.533333
0.537500
0.516667
0.529167
0.541667
0.541667
0.550000
0.716667
0.370833
0.525000
0.541667
0.562500
0.545833
0.533333
0.529167
0.529167
0.529167
0.516667
0.520833
0.525000
0.520833
0.516667
0.512500
0.520833
0.520833
0.516667
0.516667
0.525000
0.516667
0.520833
0.520833
0.516667
0.529167
0.529167
0.520833
0.512500
0.525000
0.529167
0.520833
0.525000
0.529167
0.529167
0.533333
0.520833
0.525000
0.529167
0.529167
0.520833
0.525000
0.520833
0.529167
0.541667
0.525000
0.529167
0.533333
0.529167
0.533333
0.529167
0.525000
0.533333
0.537500
0.525000
0.525000
0.529167
0.562500
0.570833
0.545833
0.541667
0.545833
0.204167
0.262500
0.587500
0.533333
0.537500
0.525000
0.529167
0.529167
0.387500
0.670833
0.525000
0.529167
0.525000
0.525000
0.525000
0.516667
0.516667
0.516667
0.520833
0.525000
0.520833
0.525000
0.520833
0.533333
0.529167
0.545833
0.537500
0.583333
0.629167
0.612500
1.137500
0.558333
0.554167
0.037500
0.500000
0.266667
0.266667
0.541667
0.550000
0.537500
0.529167
0.537500
0.529167
0.537500
0.545833
0.537500
0.520833
0.525000
0.525000
0.529167
0.520833
0.520833
0.525000
0.525000
0.525000
0.525000
0.525000
0.529167
0.525000
0.520833
0.525000
0.533333
0.529167
0.520833
0.529167
0.533333
0.537500
0.529167
0.537500
0.537500
0.537500
0.541667
0.533333
0.533333
0.541667
0.533333
0.545833
0.537500
0.533333
0.541667
0.541667
0.541667
0.375000
0.695833
0.537500
0.533333
0.529167
0.537500
0.537500
0.537500
1.054167
0.533333
0.525000
0.529167
0.525000
0.529167
0.529167
0.529167
0.529167
0.529167
0.525000
0.533333
0.525000
0.529167
0.529167
0.525000
0.404167
0.325000
0.320833
0.533333
0.554167
0.779167
0.341667
0.637500
0.479167
0.558333
0.541667
0.529167
0.525000
0.525000
1.037500
0.516667
0.520833
0.516667
0.516667
0.520833
0.525000
1.033333
0.512500
0.512500
0.512500
0.512500
0.512500
0.512500
0.512500
0.512500
0.516667
0.512500
0.195833
0.312500
0.525000
0.525000
0.525000
0.516667
0.520833
0.520833
0.512500
0.516667
0.529167
0.520833
0.520833
0.520833
0.525000
0.520833
0.516667
0.512500
0.516667
0.512500
0.508333
0.520833
0.525000
0.512500
0.525000
0.516667
0.525000
0.516667
0.512500
0.516667
0.516667
0.512500
0.508333
0.508333
0.516667
0.512500
0.508333
0.512500
0.512500
0.512500
0.520833
0.508333
0.520833
0.525000
0.512500
0.512500
0.516667
0.516667
0.516667
0.516667
0.504167
0.512500
0.525000
0.516667
0.512500
0.520833
0.520833
0.520833
0.520833
0.512500
0.516667
0.516667
0.520833
0.516667
0.512500
0.520833
0.516667
0.525000
0.516667
0.512500
0.520833
0.537500
0.545833
0.545833
0.529167
0.529167
0.529167
0.525000
0.516667
0.525000
0.508333
0.520833
0.520833
0.516667
0.516667
0.520833
0.516667
0.525000
0.533333
0.525000
0.529167
0.529167
0.537500
0.554167
0.541667
0.537500
0.537500
0.537500
0.541667
0.529167
0.525000
0.525000
0.525000
0.525000
0.520833
0.529167
0.529167
0.529167
0.550000
1.054167
0.529167
0.529167
0.529167
0.525000
0.520833
0.529167
0.529167
0.529167
0.520833
0.525000
0.520833
0.520833
0.525000
0.520833
0.520833
0.520833
0.525000
0.520833
0.520833
0.520833
0.520833
0.533333
1.058333
0.525000
0.533333
0.537500
0.537500
0.529167
0.533333
0.541667
1.116667
0.562500
0.562500
0.545833
0.533333
0.533333
0.533333
0.537500
0.529167
0.525000
0.529167
0.533333
0.529167
0.525000
0.529167
0.533333
0.529167
0.520833
0.533333
0.520833
0.537500
0.529167
0.541667
0.533333
0.545833
0.545833
0.537500
0.529167
0.541667
0.541667
0.541667
0.454167
0.495833
0.645833
0.537500
0.529167
0.529167
0.666667
0.395833
0.545833
0.570833
0.558333
0.554167
0.545833
0.537500
0.525000
0.525000
0.516667
0.516667
0.516667
1.029167
0.520833
0.520833
0.516667
0.520833
0.520833
0.529167
0.529167
0.525000
0.520833
0.525000
0.520833
0.516667
0.520833
0.525000
0.516667
0.516667
1.029167
1.041667
1.037500
0.516667
0.525000
0.520833
0.516667
0.512500
0.525000
0.525000
0.533333
0.529167
0.516667
0.520833
0.525000
0.529167
0.525000
0.520833
0.520833
0.525000
0.533333
0.525000
0.537500
0.520833
0.550000
0.591667
0.354167
0.050000
0.791667
1.129167
0.550000
0.545833
0.529167
0.533333
0.529167
0.520833
0.525000
0.525000
0.516667
0.516667
0.525000
0.525000
0.512500
0.416667
1.137500
0.512500
0.516667
0.516667
0.512500
0.508333
0.520833
0.504167
0.512500
0.525000
0.516667
0.516667
0.520833
0.525000
0.533333
0.516667
0.516667
0.520833
0.525000
0.520833
0.512500
0.520833
0.516667
0.520833
0.512500
0.554167
0.283333
0.750000
0.541667
0.541667
0.525000
0.183333
0.341667
0.516667
0.520833
0.508333
0.508333
0.508333
0.508333
0.516667
0.516667
0.520833
0.516667
0.520833
0.525000
0.529167
0.529167
0.520833
0.520833
0.520833
0.520833
0.516667
0.525000
0.525000
0.525000
0.520833
0.516667
0.520833
0.516667
0.529167
0.516667
0.512500
0.520833
0.520833
0.525000
0.520833
0.525000
0.525000
0.520833
0.516667
0.520833
0.516667
0.529167
0.516667
0.520833
0.529167
0.533333
0.516667
0.520833
0.520833
0.516667
0.529167
0.520833
0.520833
0.520833
0.525000
0.529167
0.520833
0.520833
0.520833
0.525000
0.525000
0.529167
0.516667
0.516667
0.516667
0.525000
0.520833
0.529167
0.516667
0.525000
0.575000
0.591667
0.670833
0.125000
0.962500
0.466667
0.570833
1.083333
0.529167
0.520833
0.508333
0.512500
0.512500
0.512500
0.512500
0.520833
0.529167
0.512500
0.516667
0.516667
0.516667
0.508333
0.512500
0.516667
0.516667
1.016667
0.516667
0.520833
0.695833
0.345833
0.454167
0.575000
0.533333
0.533333
0.533333
0.516667
0.533333
0.533333
0.525000
1.041667
0.516667
0.512500
0.516667
0.525000
1.016667
0.504167
0.512500
0.500000
0.508333
0.512500
0.520833
0.512500
0.516667
0.508333
0.520833
0.508333
0.512500
0.520833
0.508333
0.508333
0.504167
0.504167
0.508333
0.504167
0.508333
0.512500
0.504167
0.508333
0.504167
0.504167
0.504167
0.508333
0.512500
0.508333
0.512500
0.516667
0.525000
0.512500
0.508333
0.520833
0.529167
0.516667
0.512500
0.512500
0.516667
0.516667
0.512500
0.512500
0.516667
0.512500
0.512500
0.529167
0.512500
0.512500
0.520833
0.512500
0.575000
0.454167
0.508333
0.520833
0.520833
0.512500
0.512500
0.512500
0.504167
0.516667
0.508333
0.504167
0.512500
0.512500
0.500000
0.508333
0.508333
0.504167
0.504167
0.508333
0.508333
0.508333
0.500000
0.500000
0.504167
0.508333
0.508333
0.504167
0.512500
0.512500
0.512500
0.525000
0.512500
0.508333
0.516667
0.520833
0.520833
0.512500
0.512500
0.516667
0.516667
0.512500
0.508333
0.516667
0.516667
0.516667
0.508333
0.516667
0.520833
0.520833
0.520833
0.512500
0.508333
0.516667
0.512500
0.525000
0.508333
0.512500
0.516667
0.516667
0.516667
0.504167
0.508333
0.516667
0.516667
0.516667
0.512500
0.520833
0.516667
0.516667
0.520833
0.508333
0.233333
0.275000
0.329167
0.720833
0.554167
0.558333
0.533333
0.520833
0.541667
0.541667
0.529167
0.525000
0.520833
0.520833
0.516667
0.512500
0.508333
0.512500
0.512500
0.508333
0.508333
0.504167
0.512500
0.508333
0.508333
0.504167
0.500000
0.508333
0.516667
0.516667
0.504167
0.512500
0.508333
0.516667
0.504167
0.512500
0.516667
0.516667
0.516667
0.508333
0.516667
0.512500
0.525000
0.525000
0.516667
0.520833
0.525000
0.529167
0.525000
0.387500
0.454167
0.687500
0.608333
0.595833
0.520833
0.070833
0.583333
0.595833
0.587500
0.579167
0.558333
0.545833
0.529167
0.520833
0.520833
0.520833
1.037500
0.520833
0.525000
0.516667
0.516667
0.516667
0.525000
0.520833
0.512500
0.516667
0.529167
0.537500
0.533333
0.533333
0.525000
0.525000
0.537500
0.533333
0.525000
0.533333
0.537500
0.525000
0.533333
0.533333
0.537500
0.537500
0.529167
0.520833
0.537500
0.545833
0.537500
0.525000
0.520833
0.525000
0.529167
0.537500
0.541667
0.362500
0.379167
0.308333
0.545833
0.562500
0.550000
0.541667
0.529167
0.537500
0.533333
0.525000
0.520833
0.525000
0.520833
0.516667
0.516667
0.525000
0.516667
0.520833
0.520833
0.520833
0.525000
0.520833
0.520833
0.520833
0.516667
0.516667
0.516667
0.520833
0.516667
0.516667
0.520833
0.520833
0.333333
0.187500
0.212500
0.291667
0.283333
0.233333
0.525000
0.529167
