0.554167
0.554167
0.554167
0.554167
0.554167
0.558333
0.554167
0.554167
0.554167
0.554167
0.554167
0.554167
0.479167
0.633333
0.558333
0.554167
0.558333
0.554167
0.554167
0.558333
0.554167
0.558333
0.554167
0.554167
0.554167
0.558333
0.554167
0.554167
0.554167
0.554167
0.554167
0.558333
0.554167
0.554167
0.554167
0.554167
0.554167
0.554167
0.554167
0.558333
0.554167
0.554167
0.554167
0.554167
0.554167
0.554167
0.558333
0.554167
0.554167
0.554167
0.558333
0.554167
0.554167
0.558333
0.554167
0.554167
0.558333
0.554167
0.558333
0.554167
0.558333
0.554167
0.558333
0.554167
0.558333
0.554167
0.554167
0.491667
0.625000
0.554167
0.558333
0.558333
0.558333
0.558333
0.558333
0.554167
0.554167
0.562500
0.554167
0.558333
0.558333
0.554167
0.558333
0.558333
0.554167
0.558333
0.554167
0.558333
0.554167
0.558333
0.554167
0.558333
0.554167
0.558333
0.554167
0.558333
0.554167
0.558333
0.558333
0.554167
0.558333
0.554167
0.558333
0.554167
0.558333
0.550000
0.470833
0.645833
0.558333
0.350000
0.762500
0.562500
0.554167
0.558333
0.558333
0.554167
0.375000
0.737500
0.558333
0.558333
0.554167
0.554167
0.558333
0.554167
0.554167
0.558333
0.554167
0.554167
0.558333
0.554167
0.554167
0.558333
0.554167
0.558333
0.554167
0.554167
0.558333
0.554167
0.558333
0.554167
0.554167
0.558333
0.554167
0.558333
0.550000
0.512500
0.608333
0.558333
0.554167
0.558333
0.558333
0.558333
0.558333
0.558333
0.554167
0.558333
0.558333
0.554167
0.558333
0.554167
0.558333
0.558333
0.554167
0.558333
0.554167
0.558333
0.554167
0.558333
0.554167
0.558333
0.554167
0.558333
0.554167
0.558333
0.554167
0.558333
0.554167
0.558333
0.554167
0.558333
0.554167
0.558333
0.558333
0.554167
0.558333
0.554167
0.558333
0.558333
0.558333
0.554167
0.558333
0.558333
0.558333
0.558333
0.558333
0.558333
0.554167
0.558333
0.558333
0.558333
0.558333
0.554167
0.541667
0.575000
0.558333
0.558333
0.558333
0.558333
0.562500
0.558333
0.558333
0.554167
0.558333
0.558333
0.558333
0.558333
0.558333
0.558333
0.554167
0.558333
0.558333
0.558333
0.558333
0.550000
0.558333
0.558333
0.558333
0.558333
0.558333
0.554167
0.558333
0.558333
0.554167
0.558333
0.558333
0.554167
0.558333
0.554167
0.558333
0.554167
0.554167
0.558333
0.554167
0.558333
0.554167
0.558333
0.554167
0.558333
0.554167
0.554167
0.558333
0.554167
0.558333
0.554167
0.558333
0.554167
0.558333
0.554167
0.558333
0.554167
0.558333
0.554167
0.558333
0.554167
0.558333
0.558333
0.554167
0.558333
0.554167
0.562500
0.554167
0.558333
0.558333
0.558333
0.558333
0.554167
0.558333
0.558333
0.558333
0.558333
0.558333
0.558333
0.558333
0.554167
0.491667
0.629167
0.558333
0.558333
0.562500
0.558333
0.558333
0.558333
0.558333
0.558333
0.558333
0.558333
0.558333
0.558333
0.558333
0.558333
0.558333
0.554167
0.558333
0.558333
0.558333
0.558333
0.554167
0.558333
0.558333
0.554167
0.558333
0.558333
0.554167
0.558333
0.558333
0.558333
0.550000
0.554167
0.562500
0.558333
0.554167
0.558333
0.558333
0.558333
0.558333
0.558333
0.554167
0.558333
0.558333
0.554167
0.558333
0.558333
0.558333
0.554167
0.558333
0.554167
0.558333
0.554167
0.558333
0.558333
0.554167
0.558333
0.558333
0.558333
0.554167
0.558333
0.558333
0.558333
0.554167
0.558333
0.554167
0.558333
0.562500
0.558333
0.520833
0.595833
0.558333
0.558333
0.558333
0.558333
0.558333
0.558333
0.558333
0.558333
0.558333
0.554167
0.558333
0.558333
0.558333
0.554167
0.558333
0.558333
0.558333
0.558333
0.554167
0.558333
0.558333
0.558333
0.558333
0.558333
0.558333
0.558333
0.554167
0.558333
0.558333
0.562500
0.554167
0.554167
0.562500
0.558333
0.558333
0.558333
0.562500
0.558333
0.558333
0.558333
0.558333
0.558333
0.558333
0.558333
0.558333
0.558333
0.554167
0.558333
0.558333
0.558333
0.554167
0.558333
0.558333
0.554167
0.558333
0.558333
0.554167
0.558333
0.558333
0.554167
0.558333
0.558333
0.554167
0.558333
0.558333
0.554167
0.558333
0.554167
0.554167
0.462500
0.658333
0.558333
0.554167
0.558333
0.562500
0.554167
0.558333
0.558333
0.558333
0.558333
0.554167
0.558333
0.558333
0.558333
0.558333
0.554167
0.558333
0.558333
0.558333
0.558333
0.554167
0.558333
0.558333
0.558333
0.558333
0.558333
0.558333
0.558333
0.554167
0.550000
0.562500
0.562500
0.558333
0.558333
0.562500
0.558333
0.558333
0.558333
0.558333
0.558333
0.558333
0.558333
0.558333
0.554167
0.558333
0.558333
0.558333
0.558333
0.554167
0.558333
0.558333
0.558333
0.554167
0.558333
0.558333
0.558333
0.554167
0.558333
0.558333
0.558333
0.554167
0.558333
0.558333
0.558333
0.558333
0.558333
0.558333
0.558333
0.558333
0.558333
0.558333
0.558333
0.554167
0.558333
0.558333
0.558333
0.554167
0.558333
0.558333
0.558333
0.554167
0.558333
0.558333
0.558333
0.554167
0.558333
0.558333
0.558333
0.558333
0.558333
0.558333
0.558333
0.558333
0.558333
0.558333
0.558333
0.558333
0.558333
0.558333
0.558333
0.558333
0.558333
0.558333
0.558333
0.558333
0.558333
0.558333
0.558333
0.562500
0.558333
0.558333
0.558333
0.562500
0.558333
0.558333
0.554167
0.558333
0.495833
0.625000
0.562500
0.558333
0.558333
0.562500
0.558333
0.558333
0.558333
0.558333
0.558333
0.558333
0.558333
0.558333
0.558333
0.558333
0.558333
0.558333
0.558333
0.558333
0.558333
0.558333
0.554167
0.558333
0.558333
0.558333
0.558333
0.558333
0.558333
0.554167
0.558333
0.558333
0.558333
0.558333
0.558333
0.558333
0.558333
0.558333
0.554167
0.558333
0.525000
0.591667
0.562500
0.558333
0.558333
0.558333
0.558333
0.558333
0.558333
0.558333
0.558333
0.558333
0.554167
0.558333
0.558333
0.558333
0.558333
0.558333
0.554167
0.558333
0.558333
0.558333
0.558333
0.558333
0.554167
0.558333
0.558333
0.558333
0.558333
0.558333
0.558333
0.558333
0.558333
0.558333
0.558333
0.558333
0.558333
0.558333
0.562500
0.562500
0.554167
0.562500
0.558333
0.558333
0.558333
0.558333
0.562500
0.558333
0.558333
0.495833
0.620833
0.562500
0.558333
0.558333
0.554167
0.550000
0.566667
0.562500
0.558333
0.562500
0.558333
0.562500
0.558333
0.562500
0.558333
0.558333
0.562500
0.554167
0.562500
0.558333
0.562500
0.558333
0.558333
0.558333
0.562500
0.558333
0.558333
0.554167
0.554167
0.550000
0.575000
0.562500
0.558333
0.558333
0.558333
0.562500
0.558333
0.558333
0.558333
0.558333
0.558333
0.558333
0.558333
0.558333
0.558333
0.558333
0.562500
0.558333
0.558333
0.558333
0.558333
0.558333
0.558333
0.558333
0.562500
0.558333
0.558333
0.558333
0.558333
0.558333
0.562500
0.558333
0.558333
0.562500
0.558333
0.558333
0.562500
0.558333
0.562500
0.558333
0.562500
0.558333
0.562500
0.558333
0.558333
0.562500
0.562500
0.558333
0.566667
0.558333
0.562500
0.558333
0.562500
0.558333
0.562500
0.562500
0.558333
0.562500
0.558333
0.562500
0.558333
0.562500
0.562500
0.558333
0.562500
0.562500
0.558333
0.562500
0.562500
0.562500
0.562500
0.558333
0.554167
0.566667
0.562500
0.562500
0.562500
0.562500
0.562500
0.566667
0.562500
0.562500
0.562500
0.558333
0.562500
0.562500
0.558333
0.562500
0.558333
0.562500
0.558333
0.562500
0.562500
0.558333
0.562500
0.558333
0.562500
0.558333
0.562500
0.562500
0.558333
0.562500
0.558333
0.562500
0.558333
0.562500
0.558333
0.554167
0.454167
0.675000
0.562500
0.562500
0.562500
0.562500
0.558333
0.562500
0.562500
0.558333
0.562500
0.558333
0.562500
0.558333
0.562500
0.558333
0.558333
0.558333
0.462500
0.658333
0.562500
0.558333
0.558333
0.562500
0.558333
0.558333
0.562500
0.558333
0.558333
0.558333
0.558333
0.558333
0.558333
0.558333
0.562500
0.558333
0.558333
0.558333
0.375000
0.741667
0.562500
0.558333
0.558333
0.558333
0.558333
0.558333
0.558333
0.558333
0.558333
0.558333
0.558333
0.558333
0.558333
0.558333
0.562500
0.558333
0.558333
0.558333
0.562500
0.558333
0.558333
0.562500
0.470833
0.650000
0.558333
0.562500
0.558333
0.558333
0.558333
0.508333
0.616667
0.562500
0.562500
0.558333
0.562500
0.562500
0.562500
0.558333
0.562500
0.558333
0.562500
0.558333
0.562500
0.558333
0.562500
0.558333
0.558333
0.562500
0.558333
0.562500
0.558333
0.558333
0.562500
0.558333
0.558333
0.562500
0.558333
0.562500
0.558333
0.562500
0.558333
0.562500
0.558333
0.562500
0.558333
0.562500
0.558333
0.562500
0.562500
0.558333
0.562500
0.562500
0.558333
0.562500
0.562500
0.558333
0.562500
0.554167
0.562500
0.566667
0.562500
0.562500
0.562500
0.562500
0.558333
0.562500
0.562500
0.558333
0.562500
0.558333
0.562500
0.558333
0.558333
0.562500
0.558333
0.558333
0.562500
0.558333
0.558333
0.558333
0.562500
0.558333
0.558333
0.554167
0.470833
0.654167
0.562500
0.558333
0.562500
0.558333
0.562500
0.558333
0.558333
0.562500
0.558333
0.562500
0.558333
0.558333
0.558333
0.562500
0.558333
0.558333
0.562500
0.558333
0.558333
0.562500
0.558333
0.558333
0.562500
0.558333
0.562500
0.558333
0.562500
0.558333
0.562500
0.558333
0.562500
0.562500
0.562500
0.558333
0.562500
0.562500
0.562500
0.562500
0.558333
0.562500
0.562500
0.562500
0.558333
0.558333
0.566667
0.562500
0.566667
0.562500
0.562500
0.562500
0.562500
0.566667
0.562500
0.562500
0.558333
0.562500
0.562500
0.562500
0.562500
0.562500
0.562500
0.562500
0.562500
0.562500
0.562500
0.562500
0.562500
0.558333
0.562500
0.562500
0.562500
0.562500
0.562500
0.562500
0.562500
0.562500
0.562500
0.562500
0.562500
0.562500
0.562500
0.562500
0.562500
0.562500
0.562500
0.562500
0.562500
0.562500
0.562500
0.562500
0.558333
0.566667
0.562500
0.566667
0.562500
0.562500
0.562500
0.562500
0.562500
0.562500
0.562500
0.562500
0.562500
0.562500
0.562500
0.562500
0.562500
0.562500
0.558333
0.562500
0.562500
0.562500
0.558333
0.562500
0.562500
0.558333
0.562500
0.562500
0.562500
0.558333
0.562500
0.562500
0.558333
0.562500
0.562500
0.562500
0.554167
0.562500
0.562500
0.562500
0.562500
0.562500
0.562500
0.558333
0.562500
0.562500
0.558333
0.562500
0.562500
0.558333
0.562500
0.558333
0.562500
0.558333
0.562500
0.558333
0.562500
0.558333
0.562500
0.558333
0.562500
0.562500
0.558333
0.562500
0.558333
0.562500
0.558333
0.562500
0.562500
0.558333
0.562500
0.558333
0.558333
0.558333
0.566667
0.562500
0.562500
0.562500
0.558333
0.562500
0.562500
0.558333
0.562500
0.562500
0.558333
0.562500
0.558333
0.562500
0.558333
0.562500
0.558333
0.558333
0.558333
0.562500
0.562500
0.562500
0.558333
0.562500
0.562500
0.558333
0.562500
0.558333
0.562500
0.558333
0.562500
0.558333
0.562500
0.558333
0.558333
0.562500
