0.391667
0.312500
1.358333
0.487500
0.350000
0.312500
0.333333
0.375000
0.350000
0.537500
1.450000
0.908333
1.204167
0.925000
0.941667
0.933333
0.933333
0.925000
0.933333
0.925000
0.916667
0.920833
0.925000
0.912500
0.912500
0.916667
0.916667
0.912500
0.916667
0.916667
0.912500
0.912500
0.912500
0.916667
0.916667
0.916667
0.916667
0.916667
0.908333
0.916667
0.912500
0.916667
0.912500
0.912500
0.912500
0.916667
0.904167
0.912500
0.912500
0.912500
0.912500
0.904167
0.912500
0.904167
0.479167
0.354167
0.379167
0.387500
0.358333
0.445833
0.391667
0.350000
0.333333
0.316667
0.308333
0.520833
1.183333
0.800000
0.850000
1.250000
0.487500
0.629167
1.079167
0.591667
0.537500
0.491667
0.537500
0.545833
0.587500
0.466667
0.533333
0.525000
0.529167
0.533333
0.529167
0.529167
0.529167
0.529167
0.529167
0.529167
0.529167
0.525000
0.525000
0.529167
0.520833
0.529167
0.529167
0.525000
0.520833
0.520833
0.520833
0.520833
0.491667
0.504167
0.525000
0.520833
0.504167
0.537500
0.508333
0.508333
0.537500
0.491667
0.545833
0.537500
0.483333
0.550000
0.525000
0.491667
0.550000
0.487500
0.533333
1.158333
1.016667
1.045833
0.133333
1.062500
1.054167
0.466667
0.900000
0.712500
1.266667
1.037500
0.487500
0.737500
0.491667
0.383333
1.554167
0.983333
0.887500
1.216667
0.483333
1.262500
0.487500
1.254167
0.504167
0.604167
0.654167
0.691667
0.650000
0.675000
0.679167
0.658333
0.704167
0.670833
0.691667
0.679167
0.691667
1.337500
1.512500
0.804167
1.158333
0.479167
0.975000
0.470833
1.079167
0.470833
1.220833
0.770833
0.608333
0.695833
1.329167
0.479167
1.254167
0.791667
0.641667
0.662500
0.616667
0.687500
0.641667
1.537500
0.862500
0.816667
0.754167
0.595833
0.400000
0.354167
0.341667
0.320833
0.341667
0.350000
0.341667
0.345833
0.345833
0.350000
0.350000
0.350000
0.345833
0.350000
0.350000
0.354167
0.354167
0.350000
0.354167
0.350000
0.354167
0.354167
0.350000
0.350000
0.358333
0.350000
0.345833
0.358333
0.354167
0.354167
0.358333
0.350000
0.341667
0.358333
0.362500
0.354167
0.350000
0.354167
0.358333
0.350000
0.354167
0.358333
0.354167
0.354167
0.358333
0.354167
0.350000
0.358333
0.358333
0.350000
0.354167
0.566667
0.525000
0.533333
0.525000
0.504167
0.512500
0.512500
0.508333
0.512500
0.508333
0.512500
0.512500
0.512500
0.508333
0.512500
0.508333
0.512500
0.508333
0.512500
0.508333
0.512500
0.508333
0.508333
0.508333
0.512500
0.508333
0.508333
0.516667
0.504167
0.512500
0.512500
0.504167
0.516667
0.504167
0.512500
0.512500
0.504167
0.512500
0.504167
0.516667
0.508333
0.504167
0.516667
0.504167
0.516667
0.508333
0.504167
0.516667
0.500000
0.516667
0.508333
0.504167
0.516667
0.500000
0.516667
0.508333
0.504167
0.512500
0.500000
0.516667
0.508333
0.500000
0.516667
0.500000
0.512500
0.512500
0.495833
0.516667
0.500000
0.512500
0.512500
0.495833
0.516667
0.500000
0.512500
0.512500
0.491667
0.516667
0.500000
0.512500
0.512500
0.491667
0.520833
0.500000
0.508333
0.516667
0.491667
0.516667
0.500000
0.512500
0.512500
0.495833
0.487500
0.487500
0.508333
0.508333
0.495833
0.512500
0.491667
0.516667
0.508333
0.491667
0.516667
0.491667
0.512500
0.512500
0.525000
0.516667
0.508333
0.495833
0.483333
0.483333
0.512500
0.508333
0.495833
0.508333
0.491667
0.512500
0.508333
0.491667
0.512500
0.491667
0.512500
0.512500
0.491667
0.508333
0.491667
0.512500
0.512500
0.520833
0.491667
0.491667
0.491667
0.512500
0.487500
0.512500
0.512500
0.487500
0.512500
0.491667
0.512500
0.512500
0.483333
0.508333
0.504167
0.491667
0.512500
0.483333
0.516667
0.508333
0.483333
0.516667
0.487500
0.508333
0.516667
0.479167
0.512500
0.504167
0.487500
0.512500
0.487500
0.508333
0.508333
0.483333
0.520833
0.487500
0.512500
0.516667
0.479167
0.512500
0.508333
0.479167
0.512500
0.491667
0.516667
0.520833
0.470833
0.516667
0.516667
0.470833
0.504167
0.512500
0.479167
0.516667
0.483333
0.500000
0.516667
0.475000
0.516667
0.512500
0.475000
0.504167
0.491667
0.500000
0.508333
0.479167
0.508333
0.495833
0.495833
0.508333
0.475000
0.525000
0.508333
0.479167
0.512500
0.483333
0.500000
1.183333
0.441667
0.333333
0.391667
0.545833
0.400000
0.375000
0.362500
0.362500
0.383333
0.354167
0.295833
0.433333
0.445833
0.379167
0.404167
0.408333
0.391667
0.412500
0.404167
0.358333
0.387500
0.354167
0.304167
0.429167
0.366667
0.325000
0.375000
0.379167
0.575000
0.379167
0.329167
0.341667
0.350000
0.345833
0.341667
0.350000
0.470833
0.362500
0.308333
0.383333
0.375000
0.395833
0.362500
0.308333
0.529167
0.375000
0.325000
0.350000
0.475000
0.391667
0.350000
0.350000
0.354167
0.416667
0.383333
0.354167
0.350000
0.325000
0.295833
0.320833
0.345833
0.362500
0.337500
0.337500
0.345833
0.366667
0.345833
0.375000
0.362500
0.354167
0.341667
0.325000
0.308333
0.345833
0.358333
0.354167
0.437500
0.379167
0.350000
0.341667
0.512500
0.420833
0.375000
0.379167
0.362500
0.391667
0.387500
0.395833
0.358333
0.375000
0.329167
0.358333
0.387500
0.354167
0.358333
0.512500
0.383333
0.345833
0.333333
0.354167
1.558333
0.983333
1.495833
1.350000
1.350000
1.212500
1.233333
1.100000
0.929167
0.900000
0.895833
0.912500
0.904167
0.912500
0.900000
0.900000
0.912500
0.895833
0.908333
0.904167
0.462500
0.329167
0.458333
0.391667
0.470833
1.445833
0.475000
0.337500
0.341667
0.358333
0.379167
0.383333
0.354167
0.329167
0.387500
1.191667
0.445833
0.333333
0.325000
0.300000
0.333333
0.337500
0.329167
0.337500
0.304167
0.291667
0.308333
0.466667
1.429167
0.925000
0.891667
0.445833
1.241667
0.470833
0.333333
0.341667
0.458333
1.391667
0.470833
0.325000
0.300000
0.695833
0.420833
0.395833
0.445833
0.383333
0.362500
0.350000
0.337500
0.304167
0.320833
0.325000
0.320833
0.291667
1.012500
0.437500
0.341667
0.350000
0.391667
0.391667
0.362500
0.350000
0.354167
0.354167
0.362500
0.358333
0.341667
0.404167
0.354167
0.316667
0.337500
0.345833
1.204167
0.437500
0.350000
0.329167
0.312500
0.491667
0.379167
0.370833
0.358333
0.400000
0.383333
0.395833
0.404167
0.383333
0.345833
0.341667
0.454167
0.404167
0.350000
0.366667
0.354167
0.337500
0.412500
0.558333
0.379167
0.337500
0.366667
0.387500
0.375000
0.370833
0.370833
0.354167
0.316667
0.375000
1.470833
1.337500
0.483333
1.329167
0.458333
0.350000
0.358333
0.345833
0.341667
0.320833
0.387500
0.362500
0.658333
0.420833
1.204167
0.437500
0.362500
0.350000
0.312500
0.462500
0.379167
0.329167
0.366667
0.375000
0.362500
0.358333
0.362500
0.358333
0.358333
0.358333
0.362500
0.383333
0.387500
0.391667
0.354167
0.337500
0.370833
0.366667
0.345833
0.350000
0.420833
0.470833
0.400000
0.366667
0.362500
0.362500
0.400000
0.354167
0.345833
0.350000
0.379167
0.395833
0.387500
0.387500
0.341667
0.333333
0.379167
0.354167
0.354167
0.375000
0.379167
0.362500
0.362500
0.354167
0.383333
0.383333
0.412500
0.370833
0.366667
0.358333
0.470833
0.504167
0.408333
0.362500
0.358333
0.366667
0.395833
0.387500
0.404167
0.375000
0.354167
0.341667
0.354167
0.350000
0.370833
0.370833
0.408333
0.366667
0.345833
0.362500
0.345833
0.350000
0.391667
0.383333
0.354167
0.375000
0.370833
0.387500
0.412500
0.341667
0.300000
0.337500
0.375000
0.362500
0.333333
0.341667
0.383333
0.383333
0.370833
0.358333
0.350000
0.341667
0.358333
0.345833
0.354167
0.350000
0.362500
0.350000
0.337500
0.375000
0.408333
0.404167
0.362500
0.350000
0.408333
0.391667
0.366667
0.341667
0.341667
0.454167
0.383333
0.354167
0.379167
0.400000
0.391667
0.341667
0.283333
0.366667
0.379167
0.358333
0.333333
0.358333
0.379167
0.375000
0.345833
0.304167
0.370833
0.404167
0.370833
0.329167
0.325000
0.408333
0.600000
0.387500
0.375000
1.716667
0.916667
0.925000
0.912500
0.908333
0.908333
0.912500
0.912500
0.904167
0.912500
0.912500
0.904167
0.912500
0.912500
0.900000
0.916667
0.912500
0.908333
0.912500
0.900000
0.908333
0.904167
0.891667
0.891667
0.900000
0.883333
0.891667
0.895833
0.879167
0.454167
0.325000
0.562500
0.404167
0.325000
0.345833
0.341667
0.333333
0.337500
0.320833
0.287500
1.033333
0.433333
0.341667
0.329167
0.404167
0.387500
0.458333
0.375000
0.358333
0.379167
0.362500
0.362500
0.375000
0.558333
0.395833
0.354167
0.345833
0.341667
0.345833
0.358333
0.512500
0.370833
0.304167
0.333333
0.400000
0.379167
0.379167
0.375000
0.362500
0.362500
0.350000
0.362500
0.362500
0.362500
0.358333
0.366667
0.362500
0.358333
0.341667
0.329167
0.350000
0.345833
0.370833
0.370833
0.383333
0.350000
0.329167
0.358333
0.595833
0.412500
0.341667
0.379167
0.729167
0.395833
0.350000
0.470833
0.375000
0.345833
0.366667
0.333333
0.350000
0.358333
0.345833
0.345833
0.345833
0.370833
0.437500
0.404167
0.404167
0.466667
0.450000
0.383333
0.383333
0.350000
0.341667
0.350000
0.341667
0.358333
0.479167
0.375000
0.625000
0.429167
0.379167
0.358333
0.337500
0.345833
0.358333
0.400000
0.362500
0.341667
0.362500
0.354167
0.350000
0.325000
0.366667
0.383333
0.366667
0.358333
0.362500
0.379167
0.391667
0.320833
0.312500
0.325000
0.395833
0.375000
0.358333
0.412500
0.362500
0.358333
0.366667
0.437500
0.579167
0.412500
0.370833
0.350000
0.333333
0.358333
0.400000
0.375000
0.358333
0.354167
0.379167
0.395833
0.370833
0.462500
0.425000
0.354167
0.350000
0.358333
0.354167
0.350000
0.366667
0.354167
0.354167
0.370833
0.345833
0.300000
0.354167
0.354167
0.341667
0.375000
0.370833
0.391667
0.370833
0.354167
0.333333
0.362500
0.362500
0.337500
0.337500
0.350000
1.670833
0.933333
1.404167
0.975000
0.958333
0.945833
0.929167
0.933333
0.916667
0.925000
0.925000
0.904167
0.920833
0.912500
0.904167
0.912500
0.904167
0.908333
0.904167
0.891667
0.900000
0.900000
0.883333
0.887500
0.450000
0.329167
0.583333
0.404167
0.350000
0.379167
0.362500
0.337500
0.341667
0.475000
0.383333
0.354167
0.341667
0.312500
0.362500
0.379167
0.329167
0.362500
0.358333
0.329167
0.350000
0.358333
0.345833
0.329167
0.337500
0.341667
0.358333
0.383333
0.350000
0.325000
0.358333
0.504167
0.383333
0.350000
0.345833
0.362500
0.354167
0.358333
0.433333
0.379167
0.350000
0.370833
0.358333
0.341667
0.370833
0.383333
0.387500
0.375000
0.362500
0.391667
0.379167
0.387500
0.383333
0.366667
0.354167
0.333333
0.341667
0.350000
0.395833
0.383333
0.383333
0.391667
0.375000
0.350000
0.358333
0.370833
0.350000
0.333333
0.341667
0.329167
0.337500
0.354167
0.333333
0.362500
0.433333
0.395833
0.362500
0.350000
0.350000
0.433333
0.387500
0.358333
0.354167
0.358333
0.358333
0.341667
0.366667
0.666667
1.554167
0.983333
0.933333
0.933333
0.920833
0.908333
0.916667
0.908333
0.900000
0.904167
0.904167
0.900000
0.895833
0.900000
0.891667
0.891667
0.891667
0.891667
0.887500
0.887500
0.883333
0.450000
0.350000
0.441667
0.375000
0.312500
0.529167
0.408333
0.387500
0.591667
1.037500
0.437500
0.358333
0.341667
0.391667
0.370833
0.354167
0.350000
0.329167
0.354167
0.379167
0.379167
0.400000
0.395833
0.370833
0.608333
0.387500
0.320833
0.329167
0.358333
0.412500
0.375000
0.345833
0.341667
0.333333
0.312500
0.370833
0.370833
0.341667
0.375000
0.379167
0.354167
0.345833
0.362500
0.362500
0.341667
0.383333
1.791667
0.925000
0.975000
0.937500
0.945833
0.929167
0.933333
0.929167
0.920833
0.441667
0.333333
0.375000
0.362500
0.554167
0.545833
0.520833
0.533333
0.495833
0.475000
0.508333
0.537500
0.500000
0.475000
