0.562500
0.558333
0.570833
0.566667
0.558333
0.420833
0.725000
0.575000
0.558333
0.570833
0.570833
0.558333
0.570833
0.566667
0.558333
0.566667
0.570833
0.554167
0.566667
0.566667
0.562500
0.554167
0.566667
0.570833
0.558333
0.562500
0.570833
0.558333
0.558333
0.570833
0.562500
0.562500
0.570833
0.562500
0.562500
0.562500
0.575000
0.537500
0.579167
0.558333
0.558333
0.550000
0.545833
0.570833
0.545833
0.554167
0.562500
0.554167
0.545833
0.550000
0.566667
0.545833
0.554167
0.562500
0.550000
0.550000
0.562500
0.558333
0.550000
0.562500
0.562500
0.550000
0.558333
0.562500
0.550000
0.558333
0.562500
0.554167
0.558333
0.566667
0.562500
0.550000
0.558333
0.562500
0.550000
0.558333
0.566667
0.550000
0.558333
0.566667
0.562500
0.545833
0.675000
0.312500
0.700000
0.562500
0.558333
0.554167
0.562500
0.558333
0.558333
0.566667
0.566667
0.558333
0.558333
0.566667
0.558333
0.554167
0.570833
0.558333
0.558333
0.566667
0.558333
0.558333
0.566667
0.554167
0.554167
0.562500
0.562500
0.545833
0.558333
0.562500
0.545833
0.558333
0.566667
0.558333
0.550000
0.562500
0.566667
0.550000
0.562500
0.570833
0.554167
0.562500
0.420833
0.708333
0.558333
0.562500
0.570833
0.554167
0.562500
0.570833
0.554167
0.562500
0.570833
0.562500
0.562500
0.575000
0.575000
0.562500
0.570833
0.579167
0.566667
0.566667
0.575000
0.566667
0.566667
0.575000
0.562500
0.570833
0.575000
0.575000
0.562500
0.575000
0.575000
0.566667
0.570833
0.579167
0.558333
0.575000
0.570833
0.558333
0.566667
0.570833
0.566667
0.558333
0.566667
0.570833
0.558333
0.562500
0.570833
0.554167
0.420833
0.712500
0.566667
0.554167
0.562500
0.566667
0.558333
0.554167
0.295833
0.270833
0.550000
0.558333
0.566667
0.550000
0.562500
0.562500
0.566667
0.550000
0.558333
0.566667
0.554167
0.562500
0.562500
0.554167
0.562500
0.566667
0.558333
0.554167
0.566667
0.558333
0.554167
0.566667
0.550000
0.658333
0.466667
0.416667
0.695833
0.562500
0.558333
0.550000
0.554167
0.558333
0.545833
0.558333
0.554167
0.550000
0.562500
0.562500
0.550000
0.558333
0.562500
0.550000
0.562500
0.562500
0.420833
0.700000
0.566667
0.558333
0.566667
0.562500
0.554167
0.566667
0.562500
0.554167
0.562500
0.566667
0.554167
0.562500
0.566667
0.554167
0.566667
0.562500
0.558333
0.554167
0.458333
0.662500
0.562500
0.566667
0.554167
0.558333
0.566667
0.554167
0.554167
0.566667
0.562500
0.550000
0.562500
0.566667
0.554167
0.566667
0.562500
0.558333
0.566667
0.558333
0.554167
0.562500
0.570833
0.550000
0.545833
0.562500
0.554167
0.550000
0.562500
0.550000
0.420833
0.691667
0.554167
0.554167
0.562500
0.558333
0.550000
0.558333
0.420833
0.683333
0.562500
0.554167
0.550000
0.558333
0.558333
0.545833
0.420833
0.700000
0.545833
0.550000
0.558333
0.554167
0.545833
0.558333
0.554167
0.545833
0.558333
0.558333
0.550000
0.558333
0.562500
0.558333
0.554167
0.458333
0.658333
0.554167
0.558333
0.554167
0.541667
0.558333
0.558333
0.420833
0.770833
0.462500
0.654167
0.445833
1.108333
0.629167
0.179167
0.279167
0.275000
0.266667
0.554167
0.550000
0.545833
0.525000
0.533333
0.116667
0.983333
0.541667
0.658333
0.437500
0.625000
0.208333
0.233333
0.308333
0.525000
0.233333
0.537500
0.545833
0.641667
0.412500
0.545833
0.541667
0.525000
0.541667
0.550000
0.529167
0.412500
0.650000
0.537500
0.529167
0.541667
0.537500
0.529167
0.537500
0.425000
0.650000
0.533333
0.537500
0.529167
0.533333
0.541667
0.533333
0.529167
0.541667
0.533333
0.529167
0.541667
0.537500
0.537500
0.537500
0.545833
0.529167
0.541667
0.550000
0.533333
0.545833
0.550000
0.537500
0.545833
0.466667
0.629167
0.545833
0.545833
0.466667
0.629167
0.541667
0.554167
0.545833
0.541667
0.554167
0.541667
0.550000
0.550000
0.541667
0.550000
0.554167
0.545833
0.545833
0.554167
0.545833
0.545833
0.554167
0.541667
0.550000
0.554167
0.541667
0.550000
0.558333
0.554167
0.541667
0.558333
0.550000
0.550000
0.416667
0.683333
0.558333
0.558333
0.545833
0.554167
0.554167
0.550000
0.545833
0.558333
0.550000
0.545833
0.554167
0.558333
0.537500
0.554167
0.558333
0.545833
0.554167
0.558333
0.550000
0.541667
0.558333
0.554167
0.641667
0.550000
0.458333
0.533333
0.558333
0.545833
0.420833
0.654167
0.441667
0.645833
0.541667
0.545833
0.545833
0.533333
0.541667
0.545833
0.529167
0.545833
0.537500
0.537500
0.537500
0.545833
0.537500
0.537500
0.545833
0.541667
0.537500
0.545833
0.541667
0.537500
0.541667
0.529167
0.533333
0.541667
0.554167
0.541667
0.545833
0.545833
0.554167
0.537500
0.545833
0.550000
0.541667
0.550000
0.550000
0.541667
0.550000
0.550000
0.554167
0.537500
0.650000
0.441667
0.558333
0.545833
0.537500
0.541667
0.550000
0.541667
0.545833
0.541667
0.545833
0.541667
0.470833
0.620833
0.545833
0.550000
0.537500
0.541667
0.550000
0.533333
0.550000
0.537500
0.537500
0.554167
0.541667
0.541667
0.541667
0.541667
0.533333
0.541667
0.550000
0.533333
0.541667
0.545833
0.537500
0.541667
0.541667
0.533333
0.541667
0.545833
0.541667
0.533333
0.554167
0.529167
0.545833
0.516667
0.541667
0.550000
0.533333
0.541667
0.525000
0.554167
0.533333
0.537500
0.537500
0.537500
0.541667
0.420833
0.658333
0.545833
0.533333
0.541667
0.541667
0.533333
0.545833
0.537500
0.537500
0.545833
0.533333
0.425000
0.654167
0.545833
0.537500
0.541667
0.541667
0.541667
0.637500
0.420833
0.550000
0.545833
0.545833
0.412500
0.687500
0.529167
0.537500
0.558333
0.537500
0.654167
0.441667
0.537500
0.545833
0.545833
0.537500
0.420833
0.666667
0.550000
0.554167
0.537500
0.545833
0.554167
0.541667
0.545833
0.554167
0.554167
0.541667
0.425000
0.683333
0.550000
0.554167
0.545833
0.554167
0.558333
0.550000
0.554167
0.541667
0.545833
0.545833
0.554167
0.541667
0.541667
0.545833
0.550000
0.537500
0.545833
0.550000
0.537500
0.550000
0.550000
0.537500
0.550000
0.541667
0.541667
0.554167
0.537500
0.541667
0.550000
0.537500
0.545833
0.550000
0.541667
0.416667
0.675000
0.541667
0.545833
0.545833
0.541667
0.550000
0.550000
0.537500
0.550000
0.529167
0.558333
0.416667
0.666667
0.550000
0.541667
0.550000
0.533333
0.545833
0.545833
0.537500
0.550000
0.541667
0.541667
0.554167
0.541667
0.550000
0.554167
0.545833
0.541667
0.558333
0.554167
0.420833
0.670833
0.570833
0.537500
0.550000
0.558333
0.550000
0.550000
0.558333
0.550000
0.545833
0.566667
0.545833
0.545833
0.554167
0.550000
0.550000
0.554167
0.545833
0.541667
0.558333
0.545833
0.541667
0.554167
0.550000
0.541667
0.550000
0.545833
0.537500
0.554167
0.545833
0.541667
0.554167
0.541667
0.545833
0.558333
0.537500
0.554167
0.537500
0.550000
0.545833
0.545833
0.554167
0.545833
0.545833
0.537500
0.554167
0.537500
0.541667
0.550000
0.541667
0.533333
0.637500
0.445833
0.541667
0.554167
0.545833
0.633333
0.450000
0.545833
0.412500
0.675000
0.550000
0.550000
0.554167
0.537500
0.554167
0.550000
0.545833
0.541667
0.458333
0.637500
0.558333
0.554167
0.545833
0.558333
0.558333
0.550000
0.554167
0.558333
0.558333
0.550000
0.558333
0.558333
0.550000
0.558333
0.558333
0.554167
0.566667
0.554167
0.554167
0.554167
0.287500
0.279167
0.537500
0.545833
0.558333
0.541667
0.541667
0.554167
0.541667
0.541667
0.550000
0.541667
0.541667
0.550000
0.541667
0.537500
0.550000
0.545833
0.537500
0.550000
0.545833
0.541667
0.550000
0.550000
0.541667
0.554167
0.545833
0.550000
0.550000
0.558333
0.541667
0.545833
0.558333
0.545833
0.545833
0.558333
0.554167
0.545833
0.558333
0.541667
0.558333
0.550000
0.562500
0.545833
0.550000
0.558333
0.545833
0.550000
0.558333
0.541667
0.550000
0.554167
0.554167
0.541667
0.558333
0.550000
0.412500
0.675000
0.562500
0.550000
0.550000
0.562500
0.545833
0.558333
0.554167
0.558333
0.541667
0.554167
0.562500
0.541667
0.416667
0.687500
0.537500
0.558333
0.545833
0.545833
0.545833
0.554167
0.545833
0.550000
0.558333
0.545833
0.550000
0.558333
0.545833
0.558333
0.554167
0.558333
0.416667
0.487500
0.758333
0.550000
0.562500
0.545833
0.562500
0.558333
0.533333
0.570833
0.545833
0.550000
0.545833
0.562500
0.545833
0.554167
0.550000
0.558333
0.550000
0.558333
0.550000
0.554167
0.554167
0.558333
0.550000
0.550000
0.562500
0.545833
0.554167
0.558333
0.541667
0.554167
0.558333
0.541667
0.554167
0.554167
0.550000
0.550000
0.562500
0.550000
0.550000
0.562500
0.550000
0.554167
0.562500
0.550000
0.558333
0.558333
0.558333
0.545833
0.562500
0.558333
0.545833
0.558333
0.558333
0.545833
0.554167
0.558333
0.545833
0.554167
0.425000
0.675000
0.558333
0.554167
0.558333
0.545833
0.554167
0.550000
0.550000
0.554167
0.550000
0.550000
0.558333
0.550000
0.550000
0.554167
0.562500
0.545833
0.558333
0.550000
0.550000
0.562500
0.550000
0.550000
0.558333
0.558333
0.545833
0.562500
0.554167
0.550000
0.554167
0.554167
0.550000
0.562500
0.550000
0.545833
0.554167
0.341667
0.750000
0.533333
0.566667
0.537500
0.541667
0.550000
0.562500
0.525000
0.425000
0.666667
0.545833
0.550000
0.541667
0.537500
0.537500
0.545833
0.529167
0.541667
0.541667
0.533333
0.541667
0.541667
0.420833
0.650000
0.554167
0.533333
0.545833
0.545833
0.537500
0.541667
0.550000
0.537500
0.545833
0.550000
0.541667
0.541667
0.554167
0.541667
0.550000
0.554167
0.541667
0.550000
0.554167
0.537500
0.550000
0.554167
0.545833
0.420833
0.670833
0.558333
0.541667
0.550000
0.550000
0.545833
0.554167
0.550000
0.545833
0.554167
0.554167
0.550000
0.545833
0.562500
0.550000
0.420833
0.691667
0.554167
0.562500
0.558333
0.550000
0.558333
0.554167
0.554167
0.554167
0.566667
0.550000
0.558333
0.562500
0.558333
0.550000
0.562500
0.558333
0.554167
0.420833
0.700000
0.554167
0.558333
0.562500
0.554167
0.554167
0.566667
0.550000
0.558333
0.566667
0.558333
0.554167
0.566667
0.550000
0.554167
0.562500
0.554167
0.545833
0.562500
0.554167
0.550000
0.558333
0.562500
0.550000
0.562500
0.558333
0.545833
0.416667
0.704167
0.550000
0.550000
0.566667
0.537500
0.554167
0.554167
0.554167
0.537500
0.420833
0.683333
0.545833
0.550000
0.558333
0.537500
0.554167
0.554167
0.550000
0.545833
0.554167
0.558333
0.541667
0.558333
0.554167
0.545833
0.558333
0.558333
0.545833
0.562500
0.558333
0.545833
0.550000
0.558333
0.545833
0.550000
0.562500
0.541667
0.558333
0.554167
0.545833
0.425000
0.687500
0.554167
0.550000
0.475000
0.633333
0.545833
0.558333
0.554167
0.545833
0.425000
0.691667
0.550000
0.562500
0.554167
0.550000
0.554167
0.562500
0.545833
0.554167
0.475000
0.633333
0.550000
0.562500
0.558333
0.550000
0.550000
0.562500
0.562500
0.550000
0.554167
0.562500
0.554167
0.554167
0.562500
0.541667
0.558333
0.554167
0.545833
0.558333
