0.370833
0.208333
0.358333
0.529167
0.229167
0.325000
0.550000
0.537500
0.533333
0.516667
0.545833
0.529167
0.533333
0.529167
0.537500
0.529167
0.529167
0.533333
0.529167
0.529167
0.529167
0.529167
0.529167
0.533333
0.537500
0.537500
0.537500
0.537500
0.537500
0.541667
0.541667
0.537500
0.537500
0.545833
0.541667
0.537500
0.541667
0.541667
0.550000
0.545833
0.541667
0.545833
0.545833
0.545833
0.545833
0.550000
0.545833
0.550000
0.545833
0.550000
0.550000
0.545833
0.550000
0.550000
0.550000
0.550000
0.545833
0.233333
0.325000
0.216667
0.216667
0.220833
0.441667
0.541667
0.545833
0.537500
0.541667
0.537500
0.533333
0.541667
0.537500
0.545833
0.537500
0.537500
0.541667
0.541667
0.537500
0.537500
0.537500
0.541667
0.545833
0.541667
0.541667
0.545833
0.545833
0.550000
0.550000
0.545833
0.545833
0.545833
0.550000
0.545833
0.550000
0.558333
0.550000
0.550000
0.550000
0.554167
0.554167
0.554167
0.554167
0.550000
0.554167
0.554167
0.558333
0.558333
0.554167
0.558333
0.558333
0.554167
0.562500
0.550000
0.687500
0.316667
0.437500
0.120833
0.666667
0.545833
0.554167
0.704167
0.379167
0.541667
0.537500
0.529167
0.541667
0.529167
0.533333
0.533333
0.541667
0.533333
0.541667
0.529167
0.358333
0.170833
0.541667
0.512500
0.533333
0.466667
0.237500
0.341667
0.512500
1.037500
0.512500
0.520833
0.520833
0.516667
0.525000
0.520833
0.525000
0.525000
0.525000
0.529167
0.525000
0.525000
0.525000
0.529167
0.525000
0.533333
0.529167
0.529167
0.533333
0.529167
0.533333
0.537500
0.529167
0.537500
0.541667
0.541667
0.541667
0.541667
0.545833
0.541667
0.545833
0.550000
0.541667
0.545833
0.550000
0.541667
0.550000
0.225000
0.437500
0.866667
0.641667
0.195833
0.212500
0.320833
0.329167
0.525000
0.533333
0.525000
0.525000
0.525000
0.520833
0.520833
0.520833
0.525000
0.516667
0.520833
0.520833
0.520833
0.525000
0.525000
0.520833
0.529167
0.520833
0.533333
0.529167
0.520833
0.529167
0.620833
0.708333
0.558333
0.212500
0.520833
0.516667
0.520833
0.520833
0.520833
0.520833
0.525000
0.520833
0.525000
0.525000
0.529167
0.533333
0.529167
0.533333
0.537500
0.533333
0.537500
0.537500
0.533333
0.529167
0.529167
0.525000
0.529167
0.520833
0.525000
0.529167
0.529167
0.529167
0.533333
0.533333
0.533333
0.529167
0.533333
0.529167
0.520833
0.529167
0.520833
0.520833
0.520833
0.520833
0.520833
0.520833
0.520833
0.520833
0.516667
0.520833
0.504167
0.691667
0.250000
0.279167
0.329167
0.208333
0.808333
0.508333
0.512500
0.508333
0.512500
0.516667
0.508333
0.508333
0.512500
0.516667
0.508333
0.512500
0.512500
0.516667
0.512500
0.512500
0.516667
0.516667
0.516667
0.520833
0.520833
0.525000
0.529167
0.525000
0.520833
0.529167
0.533333
0.529167
0.529167
0.529167
0.529167
0.533333
0.533333
0.533333
0.537500
0.525000
0.533333
0.533333
0.533333
0.537500
0.529167
0.537500
0.533333
0.529167
0.533333
0.533333
0.533333
0.533333
0.525000
0.529167
0.537500
0.533333
0.533333
0.541667
0.537500
0.537500
0.537500
0.541667
0.541667
0.541667
0.537500
0.541667
0.537500
0.537500
0.533333
0.541667
0.537500
0.533333
0.670833
0.395833
0.525000
0.266667
0.266667
0.529167
0.525000
0.529167
0.529167
0.529167
0.525000
0.525000
0.529167
0.529167
0.529167
0.529167
0.525000
0.529167
0.529167
0.529167
0.525000
0.529167
0.529167
0.529167
0.529167
0.537500
0.529167
0.533333
0.354167
0.712500
0.533333
0.708333
0.358333
0.529167
0.516667
0.408333
0.641667
0.570833
0.462500
0.666667
0.366667
0.512500
0.520833
0.516667
0.512500
0.516667
0.516667
0.512500
0.520833
0.516667
0.525000
0.520833
0.520833
0.525000
0.525000
0.525000
0.520833
0.520833
0.308333
0.120833
0.604167
0.683333
0.112500
0.237500
0.512500
0.512500
0.512500
0.516667
0.512500
0.512500
0.512500
0.516667
0.512500
0.516667
0.512500
0.520833
0.516667
0.525000
0.525000
0.529167
0.529167
0.520833
0.220833
0.304167
0.520833
0.520833
0.516667
0.512500
0.512500
0.512500
0.429167
0.595833
0.520833
0.512500
0.516667
0.516667
0.512500
0.508333
0.512500
0.508333
0.504167
0.508333
0.508333
0.512500
0.508333
0.508333
0.508333
0.512500
0.512500
0.508333
0.516667
0.516667
0.516667
0.512500
0.512500
0.516667
0.516667
0.516667
0.520833
0.525000
0.520833
0.520833
0.512500
0.520833
0.516667
0.516667
0.516667
0.520833
0.516667
0.516667
0.520833
0.520833
0.520833
0.516667
0.520833
0.520833
0.525000
0.525000
0.525000
0.529167
0.533333
0.529167
0.525000
0.533333
0.537500
0.529167
0.529167
0.533333
0.529167
0.533333
0.533333
0.537500
0.533333
0.537500
0.537500
0.533333
0.300000
0.225000
0.520833
0.558333
0.533333
0.525000
0.529167
0.525000
0.525000
0.533333
0.525000
0.525000
0.529167
0.533333
0.525000
0.529167
0.529167
0.529167
0.533333
0.545833
0.550000
0.545833
0.545833
0.541667
0.550000
0.279167
0.258333
0.533333
0.529167
0.529167
0.525000
0.529167
0.520833
0.529167
0.525000
0.537500
0.529167
0.537500
0.529167
0.529167
0.529167
0.520833
0.516667
0.520833
0.520833
0.520833
0.520833
0.520833
0.529167
0.525000
0.529167
0.529167
0.529167
0.437500
0.616667
0.525000
0.520833
0.341667
0.362500
0.325000
0.520833
0.516667
0.412500
0.620833
0.520833
0.520833
0.520833
0.516667
0.520833
0.520833
0.525000
0.520833
0.525000
0.520833
0.525000
0.516667
0.516667
0.512500
0.512500
0.512500
0.508333
0.512500
0.508333
0.508333
0.508333
0.512500
0.516667
0.516667
0.512500
0.516667
0.516667
0.516667
0.516667
0.516667
0.512500
0.516667
0.516667
0.512500
0.516667
0.520833
0.520833
0.516667
0.512500
0.516667
0.516667
0.512500
0.512500
0.516667
0.516667
0.516667
0.512500
0.520833
0.520833
0.520833
0.520833
0.520833
0.525000
0.525000
0.529167
0.520833
0.529167
0.520833
0.529167
0.529167
0.529167
0.529167
0.525000
0.529167
0.537500
0.529167
0.533333
0.537500
0.533333
0.529167
0.537500
0.537500
0.533333
0.533333
0.529167
0.525000
0.533333
0.525000
0.525000
0.525000
0.520833
0.533333
0.516667
0.529167
0.525000
0.533333
0.529167
0.525000
0.525000
0.520833
0.529167
0.520833
0.516667
0.512500
0.520833
0.520833
0.516667
0.512500
0.516667
0.516667
0.516667
0.520833
0.516667
0.512500
0.516667
0.516667
0.512500
0.512500
0.512500
0.516667
0.520833
0.520833
0.520833
0.529167
0.529167
0.516667
0.525000
0.529167
0.525000
0.529167
0.529167
0.520833
0.533333
0.537500
0.533333
0.529167
0.529167
0.533333
0.541667
0.537500
0.541667
0.537500
0.533333
0.529167
0.533333
0.525000
0.529167
0.529167
0.533333
0.529167
0.533333
0.525000
0.525000
0.525000
0.525000
0.466667
0.566667
0.512500
0.516667
0.516667
0.512500
0.512500
0.520833
0.516667
0.516667
0.520833
0.525000
0.525000
0.520833
0.520833
0.525000
0.525000
0.520833
0.525000
0.525000
0.525000
0.525000
0.525000
0.516667
0.529167
0.525000
0.529167
0.525000
0.529167
0.533333
0.533333
0.533333
0.529167
0.533333
0.537500
0.541667
0.533333
0.537500
0.537500
0.545833
0.545833
0.541667
0.541667
0.541667
0.545833
0.541667
0.550000
0.545833
0.545833
0.541667
0.541667
0.541667
0.550000
0.545833
0.550000
0.550000
0.550000
0.554167
0.550000
0.554167
0.550000
0.550000
0.550000
0.550000
0.558333
0.550000
0.550000
0.558333
0.554167
0.558333
0.562500
0.558333
0.570833
0.562500
0.558333
0.566667
0.554167
0.558333
0.558333
0.558333
0.554167
0.558333
0.558333
0.558333
0.554167
0.554167
0.550000
0.558333
0.554167
0.562500
0.562500
0.562500
0.566667
0.570833
0.575000
0.570833
0.562500
0.558333
0.562500
0.562500
0.562500
0.562500
0.562500
0.566667
0.562500
0.570833
0.562500
0.562500
0.558333
0.562500
0.566667
0.575000
0.579167
0.570833
0.570833
0.570833
0.570833
0.570833
0.575000
0.570833
0.583333
0.587500
0.579167
0.575000
0.579167
0.570833
0.575000
0.575000
0.566667
0.575000
0.570833
0.583333
0.570833
0.570833
0.558333
0.570833
0.562500
0.566667
0.566667
0.575000
0.566667
0.570833
0.570833
0.570833
0.583333
0.570833
0.566667
0.570833
0.575000
0.575000
0.579167
0.583333
0.575000
0.575000
0.587500
0.583333
0.579167
0.579167
0.579167
0.579167
0.587500
0.575000
0.579167
0.583333
0.587500
0.583333
0.579167
0.583333
0.575000
0.575000
0.583333
0.579167
0.575000
0.579167
0.579167
0.583333
0.583333
0.587500
0.587500
0.587500
0.583333
0.583333
0.579167
0.579167
0.579167
0.579167
0.579167
0.579167
0.583333
0.587500
0.583333
0.583333
0.575000
0.570833
0.575000
0.587500
0.587500
0.587500
0.591667
0.587500
0.587500
0.595833
0.587500
0.587500
0.579167
0.575000
0.575000
0.570833
0.575000
0.575000
0.575000
0.579167
0.570833
0.579167
0.587500
0.587500
0.595833
0.604167
0.591667
0.600000
0.595833
0.604167
0.595833
0.604167
0.595833
0.591667
0.600000
0.591667
0.595833
0.587500
0.587500
0.591667
0.187500
0.416667
0.129167
0.641667
0.387500
0.412500
0.516667
0.775000
0.554167
0.087500
0.470833
0.550000
0.550000
0.550000
0.554167
0.545833
0.550000
0.550000
0.550000
0.545833
0.550000
0.545833
0.550000
0.545833
0.550000
0.550000
0.550000
0.545833
0.541667
0.658333
0.420833
0.383333
0.279167
0.408333
0.525000
0.533333
0.529167
0.529167
0.537500
0.537500
0.541667
0.541667
0.541667
0.541667
0.545833
0.541667
0.545833
0.545833
0.537500
0.537500
0.245833
0.304167
0.233333
0.845833
0.504167
0.695833
0.295833
0.654167
0.533333
0.529167
0.533333
0.525000
0.525000
0.533333
0.529167
0.245833
0.287500
0.233333
0.329167
0.395833
0.620833
0.529167
0.525000
0.520833
0.704167
0.337500
0.520833
0.516667
0.520833
0.525000
0.516667
0.520833
0.520833
0.529167
0.525000
0.529167
0.529167
0.520833
0.529167
0.525000
0.525000
0.525000
0.520833
0.525000
0.516667
0.520833
0.525000
0.529167
0.529167
0.529167
0.533333
0.529167
0.537500
0.537500
0.533333
0.533333
0.537500
0.537500
0.537500
0.545833
0.545833
0.554167
0.554167
0.554167
0.554167
0.562500
0.558333
0.562500
0.554167
0.558333
0.562500
0.191667
0.358333
0.554167
0.545833
0.537500
0.537500
0.537500
0.537500
0.533333
0.533333
0.529167
0.537500
0.529167
0.529167
0.525000
0.529167
0.529167
0.525000
0.525000
0.529167
0.529167
0.529167
0.525000
0.533333
0.533333
0.529167
0.537500
0.533333
0.533333
0.537500
0.533333
0.533333
0.533333
0.537500
0.533333
0.533333
0.529167
0.533333
0.533333
0.533333
0.533333
0.541667
0.537500
0.537500
0.537500
0.541667
0.537500
0.541667
0.537500
0.541667
0.537500
0.541667
0.545833
0.558333
0.554167
0.554167
0.550000
0.545833
0.554167
0.550000
0.550000
0.541667
0.550000
0.541667
0.550000
0.558333
0.554167
0.558333
0.558333
0.562500
0.575000
0.570833
0.575000
0.570833
0.570833
0.575000
0.570833
0.579167
0.570833
0.575000
0.562500
0.566667
0.566667
0.562500
0.566667
0.558333
0.558333
0.562500
0.554167
0.566667
0.575000
0.562500
0.600000
0.608333
0.587500
0.583333
0.579167
0.575000
0.570833
0.566667
0.562500
0.554167
0.562500
0.554167
0.562500
0.558333
0.570833
0.575000
0.575000
0.570833
0.562500
0.562500
0.562500
0.562500
0.550000
0.550000
0.441667
0.662500
0.541667
0.545833
0.533333
0.537500
0.533333
0.533333
0.529167
0.541667
0.533333
0.533333
0.537500
0.537500
0.537500
