0.425000
0.425000
0.425000
0.425000
0.420833
0.420833
0.425000
0.420833
0.425000
0.229167
0.616667
0.420833
0.425000
0.420833
0.425000
0.425000
0.420833
0.420833
0.425000
0.420833
0.429167
0.420833
0.416667
0.425000
0.425000
0.425000
0.420833
0.420833
0.429167
0.425000
0.425000
0.429167
0.845833
0.425000
0.429167
0.425000
0.425000
0.420833
0.429167
0.420833
0.425000
0.425000
0.420833
0.425000
0.429167
0.420833
0.425000
0.420833
0.429167
0.420833
0.429167
0.420833
0.425000
0.425000
0.420833
0.429167
0.425000
0.420833
0.425000
0.425000
0.429167
0.425000
0.420833
0.425000
0.429167
0.425000
0.429167
0.429167
0.425000
0.429167
0.429167
0.425000
0.433333
0.425000
0.429167
0.429167
0.425000
0.208333
0.654167
0.429167
0.429167
0.429167
0.425000
0.433333
0.425000
0.425000
0.429167
0.425000
0.429167
0.420833
0.200000
0.229167
0.425000
0.425000
0.429167
0.425000
0.420833
0.429167
0.425000
0.425000
0.425000
0.420833
0.425000
0.762500
0.508333
0.425000
0.425000
0.420833
0.425000
0.425000
0.420833
0.425000
0.420833
0.425000
0.425000
0.420833
0.420833
0.425000
0.425000
0.425000
0.420833
0.420833
0.425000
0.425000
0.425000
0.420833
0.425000
0.420833
0.425000
0.420833
0.425000
0.362500
0.483333
0.416667
0.425000
0.420833
0.420833
0.416667
0.420833
0.420833
0.420833
0.425000
0.416667
0.420833
0.420833
0.837500
0.425000
0.420833
0.416667
0.420833
0.420833
0.420833
0.420833
0.425000
0.416667
0.420833
0.420833
0.425000
0.420833
0.425000
0.425000
0.420833
0.420833
0.425000
0.341667
0.504167
0.420833
0.425000
0.429167
0.420833
0.420833
0.420833
0.425000
0.425000
0.420833
0.420833
0.425000
0.425000
0.420833
0.425000
0.425000
0.420833
0.420833
0.429167
0.420833
0.425000
0.420833
0.429167
0.425000
0.425000
0.429167
0.420833
0.429167
0.425000
0.429167
0.425000
0.425000
0.429167
0.425000
0.429167
0.425000
0.429167
0.429167
0.425000
0.429167
0.425000
0.429167
0.429167
0.420833
0.429167
0.425000
0.429167
0.425000
0.425000
0.425000
0.429167
0.850000
0.425000
0.545833
0.304167
0.429167
0.429167
0.420833
0.425000
0.420833
0.429167
0.420833
0.420833
0.425000
0.420833
0.429167
0.420833
0.420833
0.425000
0.420833
0.420833
0.320833
0.529167
0.420833
0.425000
0.420833
0.429167
0.420833
0.425000
0.429167
0.425000
0.425000
0.425000
0.425000
0.425000
0.429167
0.429167
0.420833
0.425000
0.425000
0.425000
0.425000
0.425000
0.425000
0.420833
0.425000
0.425000
0.845833
0.420833
0.425000
0.425000
0.425000
0.425000
0.420833
0.425000
0.425000
0.429167
0.420833
0.420833
0.425000
0.425000
0.425000
0.425000
0.425000
0.425000
0.425000
0.429167
0.425000
0.425000
0.429167
0.429167
0.425000
0.429167
0.429167
0.425000
0.429167
0.429167
0.429167
0.425000
0.425000
0.425000
0.425000
0.429167
0.429167
0.425000
0.425000
0.429167
0.425000
0.425000
0.437500
0.416667
0.429167
0.425000
0.425000
0.429167
0.858333
0.429167
0.429167
0.429167
0.425000
0.429167
0.433333
0.425000
0.433333
0.429167
0.854167
0.429167
0.429167
0.429167
0.429167
0.862500
0.429167
0.429167
0.433333
0.433333
0.429167
0.429167
0.429167
0.433333
0.433333
0.433333
0.433333
0.429167
0.429167
0.433333
0.433333
0.862500
0.425000
0.433333
0.429167
0.433333
0.862500
0.429167
0.433333
0.433333
0.433333
0.866667
0.433333
0.433333
0.866667
0.433333
0.433333
0.433333
0.433333
0.866667
0.429167
0.433333
0.437500
0.437500
0.862500
0.437500
0.437500
0.433333
0.870833
0.433333
0.437500
0.437500
0.433333
0.875000
0.437500
0.437500
0.437500
0.875000
0.433333
0.437500
0.437500
0.437500
0.875000
0.433333
0.437500
0.437500
0.875000
0.433333
0.437500
0.441667
0.437500
0.437500
0.437500
0.879167
0.875000
0.441667
0.883333
0.441667
0.445833
0.441667
0.441667
0.883333
0.441667
0.441667
0.441667
0.883333
0.437500
0.441667
0.441667
0.883333
0.437500
0.445833
0.441667
0.441667
0.441667
0.441667
0.887500
0.891667
0.450000
0.450000
0.450000
0.450000
0.895833
0.445833
0.445833
0.445833
0.895833
0.441667
0.445833
0.441667
0.445833
0.887500
0.441667
0.445833
0.445833
0.887500
0.441667
0.445833
0.441667
0.887500
0.441667
0.441667
0.441667
0.441667
0.441667
0.441667
0.887500
0.437500
0.450000
0.450000
0.450000
0.904167
0.445833
0.454167
0.450000
0.900000
0.445833
0.450000
0.445833
0.450000
0.445833
0.891667
0.445833
0.445833
0.445833
0.891667
0.450000
0.445833
0.450000
0.900000
0.445833
0.450000
0.900000
1.025000
0.183333
0.591667
0.450000
0.895833
0.445833
0.450000
0.891667
0.887500
0.445833
0.891667
0.441667
0.445833
0.445833
0.891667
0.883333
0.445833
0.445833
0.441667
0.445833
0.445833
0.887500
0.904167
0.908333
0.908333
0.454167
0.454167
1.358333
0.450000
0.450000
0.450000
0.450000
0.450000
0.900000
0.445833
0.450000
0.450000
0.900000
0.450000
0.450000
0.454167
0.450000
0.904167
0.445833
0.454167
0.450000
0.454167
0.454167
0.904167
0.904167
0.925000
0.462500
0.920833
0.458333
0.458333
0.462500
0.458333
0.912500
0.454167
0.458333
0.458333
0.912500
0.454167
0.458333
0.454167
0.916667
0.454167
0.454167
0.458333
0.454167
0.916667
0.366667
0.541667
0.462500
0.458333
0.458333
0.920833
0.458333
0.458333
0.462500
0.458333
0.920833
0.458333
0.458333
0.458333
0.462500
0.458333
0.925000
0.929167
0.475000
0.475000
0.470833
0.941667
0.466667
0.470833
0.466667
0.933333
0.462500
0.466667
0.466667
0.933333
0.462500
0.466667
0.462500
0.466667
0.929167
0.462500
0.466667
0.929167
0.462500
0.462500
0.929167
0.462500
0.462500
0.466667
0.929167
0.462500
0.462500
0.925000
0.462500
0.466667
0.466667
0.925000
0.462500
0.462500
0.462500
0.929167
0.462500
0.462500
0.462500
0.462500
0.466667
0.925000
0.929167
0.466667
0.466667
0.470833
0.466667
0.462500
0.466667
0.466667
0.470833
0.937500
0.462500
0.470833
0.470833
0.466667
0.933333
0.466667
0.466667
0.466667
0.470833
0.937500
0.466667
0.466667
0.470833
0.466667
0.937500
0.470833
0.466667
0.466667
0.941667
0.933333
0.470833
0.466667
0.470833
0.941667
0.466667
0.470833
0.466667
0.475000
0.937500
0.470833
0.466667
0.470833
0.475000
0.933333
0.475000
0.470833
0.941667
0.475000
0.475000
0.479167
0.945833
0.475000
0.470833
0.475000
0.950000
0.475000
0.475000
0.475000
0.475000
0.475000
0.945833
0.470833
0.533333
0.412500
0.479167
0.479167
0.479167
0.479167
0.479167
0.475000
0.950000
0.470833
0.475000
0.470833
0.941667
0.470833
0.470833
0.470833
0.470833
0.466667
0.470833
0.466667
0.466667
0.470833
0.470833
0.466667
0.466667
0.470833
0.470833
0.470833
0.470833
0.466667
0.470833
0.475000
0.470833
0.470833
0.475000
0.475000
0.470833
0.479167
0.487500
0.491667
0.491667
0.487500
0.487500
0.487500
0.487500
0.479167
0.479167
0.483333
0.483333
0.479167
0.475000
0.475000
0.479167
0.475000
0.475000
0.470833
0.470833
0.475000
0.475000
0.475000
0.475000
0.470833
0.475000
0.475000
0.475000
0.479167
0.475000
0.475000
0.475000
0.479167
0.475000
0.479167
0.475000
0.475000
0.479167
0.479167
0.479167
0.475000
0.479167
0.479167
0.475000
0.479167
0.479167
0.479167
0.479167
0.479167
0.479167
0.479167
0.483333
0.483333
0.483333
0.483333
0.479167
0.479167
0.483333
0.483333
0.479167
0.483333
0.479167
0.475000
0.479167
0.479167
0.483333
0.479167
0.479167
0.483333
0.483333
0.483333
0.483333
0.487500
0.483333
0.483333
0.491667
0.500000
0.495833
0.500000
0.491667
0.491667
0.495833
0.495833
0.491667
0.491667
0.487500
0.487500
0.487500
0.487500
0.487500
0.483333
0.483333
0.487500
0.483333
0.483333
0.483333
0.483333
0.487500
0.483333
0.479167
0.479167
0.483333
0.483333
0.483333
0.487500
0.479167
0.483333
0.483333
0.487500
0.487500
0.483333
0.487500
0.487500
0.487500
0.491667
0.483333
0.487500
0.487500
0.483333
0.487500
0.487500
0.487500
0.483333
0.487500
0.487500
0.487500
0.487500
0.483333
0.487500
0.491667
0.487500
0.487500
0.487500
0.483333
0.487500
0.487500
0.487500
0.479167
0.487500
0.487500
0.487500
0.491667
0.483333
0.487500
0.491667
0.487500
0.487500
0.487500
0.487500
0.487500
0.487500
0.483333
0.491667
0.487500
0.487500
0.487500
0.483333
0.487500
0.487500
0.487500
0.487500
0.487500
0.487500
0.483333
0.487500
0.487500
0.487500
0.487500
0.487500
0.487500
0.487500
0.487500
0.483333
0.487500
0.491667
0.491667
0.495833
0.487500
0.491667
0.491667
0.495833
0.491667
0.491667
0.487500
0.491667
0.491667
0.491667
0.487500
0.491667
0.491667
0.491667
0.487500
0.487500
0.491667
0.491667
0.491667
0.487500
0.487500
0.491667
0.487500
0.495833
0.487500
0.491667
0.487500
0.491667
0.491667
0.491667
0.487500
0.491667
0.491667
0.491667
0.495833
0.487500
0.491667
0.487500
0.491667
0.491667
0.487500
0.491667
0.491667
0.487500
0.491667
0.483333
0.491667
0.491667
0.487500
0.487500
0.487500
0.491667
0.487500
0.491667
0.483333
0.483333
0.487500
0.491667
0.487500
0.483333
0.491667
0.487500
0.491667
0.491667
0.483333
0.491667
0.491667
0.491667
0.487500
0.487500
0.491667
0.491667
0.487500
0.491667
0.491667
0.491667
0.491667
0.491667
0.500000
0.491667
0.491667
0.495833
0.729167
0.104167
0.645833
0.495833
0.316667
0.179167
0.500000
0.500000
0.500000
0.500000
0.495833
0.500000
0.491667
0.491667
0.491667
0.491667
0.491667
0.487500
0.487500
0.491667
0.487500
0.491667
0.483333
0.491667
0.491667
0.487500
0.487500
0.491667
0.487500
0.491667
0.491667
0.491667
0.491667
0.491667
0.487500
0.491667
0.483333
0.487500
0.491667
0.491667
0.487500
0.491667
0.487500
0.487500
0.491667
0.491667
0.491667
0.491667
0.491667
0.491667
0.491667
0.491667
0.491667
0.491667
0.491667
0.495833
0.491667
0.491667
0.491667
0.495833
0.491667
0.491667
0.491667
0.495833
0.495833
0.495833
0.495833
0.491667
0.495833
0.491667
0.491667
0.495833
0.495833
0.500000
0.495833
0.500000
0.495833
0.495833
0.495833
0.495833
0.495833
0.495833
0.491667
0.495833
0.495833
0.495833
0.495833
0.491667
0.495833
0.500000
0.495833
0.500000
0.495833
0.495833
0.495833
0.495833
0.495833
0.491667
0.500000
0.500000
0.500000
0.495833
0.495833
0.495833
0.500000
0.500000
0.500000
0.495833
0.495833
0.500000
0.495833
0.500000
0.500000
0.495833
0.500000
0.495833
0.500000
0.500000
0.500000
0.495833
0.495833
0.504167
0.500000
0.504167
0.495833
0.500000
0.500000
0.500000
0.500000
0.500000
0.491667
0.500000
0.500000
0.991667
0.500000
0.500000
0.495833
0.495833
0.495833
0.495833
0.500000
0.495833
0.495833
0.500000
0.495833
0.500000
0.500000
0.491667
0.500000
0.495833
0.495833
0.495833
0.487500
0.495833
0.495833
0.491667
0.495833
0.495833
0.495833
0.495833
0.495833
0.495833
0.495833
0.495833
0.495833
0.495833
0.491667
0.495833
0.500000
0.495833
0.495833
0.495833
0.500000
0.495833
0.495833
0.495833
0.500000
0.500000
0.495833
0.500000
0.500000
0.495833
0.500000
0.504167
0.500000
0.504167
0.504167
0.500000
0.500000
0.500000
0.500000
0.504167
0.495833
0.500000
0.500000
0.504167
0.500000
0.500000
0.500000
0.500000
0.504167
0.500000
0.504167
0.500000
0.504167
0.504167
0.504167
0.504167
0.504167
0.508333
0.500000
0.508333
0.504167
0.508333
0.504167
0.504167
0.508333
0.504167
0.508333
0.500000
0.504167
0.508333
0.504167
0.504167
0.504167
0.504167
0.504167
0.504167
0.504167
0.508333
0.500000
0.504167
0.508333
0.504167
0.508333
0.504167
0.508333
0.504167
0.504167
0.504167
0.512500
0.500000
0.508333
0.508333
0.508333
0.508333
0.504167
0.508333
0.508333
0.508333
0.508333
0.504167
0.508333
0.504167
0.508333
0.504167
0.508333
0.512500
0.512500
0.504167
0.512500
0.508333
0.508333
0.508333
0.508333
0.512500
0.512500
0.512500
0.512500
0.508333
0.512500
0.512500
0.512500
0.512500
0.516667
0.516667
0.516667
0.516667
0.512500
0.516667
0.516667
0.516667
0.512500
0.512500
0.512500
0.516667
0.512500
0.512500
0.516667
0.516667
0.512500
0.516667
