0.475000
0.229167
0.337500
0.562500
0.279167
0.337500
0.345833
0.341667
0.354167
0.366667
0.345833
0.366667
0.379167
0.375000
0.350000
0.341667
0.345833
0.358333
0.354167
0.620833
0.270833
0.304167
0.462500
0.254167
0.362500
0.362500
0.358333
0.358333
0.383333
0.366667
0.354167
0.358333
0.337500
0.337500
0.575000
0.295833
0.383333
0.375000
0.337500
0.345833
0.358333
0.358333
0.379167
0.375000
0.358333
0.362500
0.362500
0.366667
0.354167
0.391667
0.379167
0.370833
0.362500
0.358333
0.237500
0.570833
0.391667
1.695833
1.170833
1.133333
1.295833
1.112500
0.983333
0.908333
1.033333
1.204167
0.587500
0.266667
0.379167
0.541667
0.458333
0.354167
0.437500
1.541667
0.458333
0.370833
0.479167
0.229167
0.337500
0.370833
0.395833
0.366667
0.341667
0.354167
0.358333
0.341667
0.354167
0.445833
0.379167
0.550000
0.270833
0.412500
0.383333
0.391667
0.366667
0.362500
0.350000
0.341667
0.354167
0.391667
0.337500
0.358333
0.366667
1.616667
1.087500
1.254167
0.454167
0.345833
0.316667
0.325000
0.350000
0.337500
0.358333
0.404167
0.366667
0.425000
0.375000
0.400000
0.404167
0.383333
0.370833
0.366667
0.366667
0.395833
0.400000
0.375000
0.379167
0.366667
0.358333
0.358333
0.350000
0.345833
0.362500
0.387500
0.412500
0.366667
0.370833
0.358333
0.345833
0.345833
0.354167
0.400000
0.395833
0.350000
0.608333
0.295833
0.395833
0.391667
0.445833
0.575000
0.241667
0.362500
0.595833
0.287500
0.375000
0.395833
0.670833
0.275000
0.520833
0.370833
0.312500
0.354167
0.366667
0.358333
0.900000
0.325000
1.500000
1.037500
1.179167
1.041667
1.250000
1.129167
0.995833
0.995833
0.979167
0.954167
0.958333
0.916667
0.908333
0.929167
0.854167
1.195833
0.595833
0.229167
0.337500
0.520833
0.291667
0.362500
0.333333
0.345833
0.362500
0.358333
0.354167
0.375000
0.383333
0.366667
0.383333
0.595833
0.262500
0.370833
0.400000
0.395833
0.420833
0.645833
0.279167
0.325000
0.350000
0.383333
0.383333
0.358333
1.612500
1.066667
0.941667
1.450000
0.479167
0.341667
0.304167
0.325000
0.333333
1.462500
0.458333
0.350000
0.325000
0.370833
0.383333
0.341667
0.337500
0.387500
0.366667
0.562500
0.479167
0.491667
0.533333
0.533333
0.466667
0.529167
1.454167
0.466667
0.358333
0.345833
0.350000
0.362500
0.358333
0.379167
0.387500
0.362500
0.354167
0.362500
0.391667
0.379167
0.354167
0.350000
0.237500
0.570833
0.387500
0.358333
0.395833
0.400000
0.383333
0.366667
0.400000
0.408333
0.400000
0.354167
0.320833
0.345833
0.354167
0.362500
0.387500
0.358333
0.333333
0.575000
0.254167
0.354167
0.379167
0.462500
0.400000
1.316667
1.454167
1.541667
1.137500
0.579167
0.225000
0.304167
0.729167
0.166667
0.483333
0.354167
0.354167
0.354167
0.362500
0.362500
0.362500
0.358333
0.362500
0.370833
0.366667
0.362500
0.366667
0.366667
0.370833
0.354167
0.370833
0.379167
0.370833
0.370833
0.366667
0.370833
0.379167
0.375000
0.362500
0.370833
0.375000
0.370833
0.362500
0.370833
0.375000
0.370833
0.366667
0.370833
0.375000
0.370833
0.366667
0.370833
0.375000
0.366667
0.366667
0.375000
0.370833
0.362500
0.370833
0.370833
0.370833
0.370833
0.375000
0.370833
0.366667
0.366667
0.379167
0.370833
0.362500
0.370833
0.370833
0.370833
0.366667
0.370833
0.370833
0.362500
0.370833
0.379167
0.370833
0.370833
0.358333
0.370833
0.375000
0.370833
0.370833
0.366667
0.370833
0.375000
0.366667
0.375000
0.366667
0.370833
0.366667
0.370833
0.366667
0.362500
0.370833
0.375000
0.362500
0.370833
0.370833
0.370833
0.366667
0.362500
0.370833
0.370833
0.366667
0.366667
0.366667
0.370833
0.366667
0.366667
0.366667
0.362500
0.370833
0.370833
0.362500
0.362500
0.370833
0.370833
0.366667
0.366667
0.370833
0.366667
0.354167
0.362500
0.375000
0.370833
0.341667
0.362500
0.383333
0.366667
0.366667
0.375000
0.366667
0.366667
0.366667
0.362500
0.370833
0.370833
0.362500
0.362500
0.366667
0.370833
0.358333
0.370833
0.366667
0.362500
0.370833
0.366667
0.354167
0.370833
0.370833
0.354167
0.370833
0.375000
0.362500
0.366667
0.366667
0.358333
0.366667
0.366667
0.366667
0.366667
0.366667
0.362500
0.370833
0.362500
0.366667
0.366667
0.358333
0.370833
0.370833
0.362500
0.358333
0.370833
0.362500
0.362500
0.370833
0.366667
0.362500
0.370833
0.358333
0.366667
0.370833
0.362500
0.366667
0.362500
0.350000
0.370833
0.375000
0.362500
0.362500
0.366667
0.362500
0.362500
0.366667
0.366667
0.366667
0.358333
0.366667
0.366667
0.354167
0.370833
0.370833
0.362500
0.362500
0.366667
0.366667
0.354167
0.366667
0.370833
0.358333
0.366667
0.370833
0.362500
0.362500
0.366667
0.370833
0.362500
0.358333
0.366667
0.370833
0.366667
0.345833
0.370833
0.375000
0.366667
0.358333
0.366667
0.370833
0.362500
0.366667
0.362500
0.358333
0.366667
0.366667
0.362500
0.366667
0.366667
0.362500
0.362500
0.358333
0.366667
0.370833
0.354167
0.366667
0.366667
0.358333
0.366667
0.362500
0.362500
0.366667
0.358333
0.366667
0.362500
0.362500
0.362500
0.366667
0.366667
0.358333
0.366667
0.366667
0.362500
0.366667
0.362500
0.350000
0.362500
0.375000
0.362500
0.358333
0.366667
0.362500
0.362500
0.358333
0.366667
0.370833
0.362500
0.358333
0.366667
0.354167
0.366667
0.362500
0.366667
0.362500
0.362500
0.366667
0.362500
0.354167
0.366667
0.370833
0.350000
0.366667
0.370833
0.358333
0.362500
0.362500
0.362500
0.362500
0.358333
0.362500
0.366667
0.362500
0.366667
0.362500
0.362500
0.366667
0.354167
0.370833
0.366667
0.350000
0.366667
0.370833
0.354167
0.362500
0.366667
0.362500
0.362500
0.358333
0.366667
0.366667
0.358333
0.366667
0.362500
0.362500
0.366667
0.358333
0.362500
0.366667
0.354167
0.362500
0.370833
0.354167
0.370833
0.358333
0.366667
0.366667
0.350000
0.370833
0.370833
0.358333
0.362500
0.366667
0.362500
0.354167
0.366667
0.362500
0.366667
0.362500
0.362500
0.366667
0.362500
0.354167
0.370833
0.366667
0.362500
0.354167
0.366667
0.366667
0.354167
0.366667
0.370833
0.354167
0.366667
0.366667
0.358333
0.366667
0.358333
0.362500
0.362500
0.366667
0.350000
0.366667
0.366667
0.362500
0.362500
0.358333
0.366667
0.362500
0.362500
0.366667
0.358333
0.362500
0.362500
0.366667
0.362500
0.350000
0.370833
0.370833
0.350000
0.366667
0.370833
0.350000
0.362500
0.370833
0.358333
0.362500
0.358333
0.366667
0.362500
0.354167
0.366667
0.366667
0.354167
0.366667
0.366667
0.362500
0.350000
0.366667
0.370833
0.358333
0.362500
0.362500
0.354167
0.370833
0.362500
0.362500
0.358333
0.366667
0.358333
0.362500
0.366667
0.354167
0.362500
0.370833
0.350000
0.362500
0.362500
0.366667
0.366667
0.350000
0.366667
0.366667
0.354167
0.366667
0.370833
0.358333
0.350000
0.362500
0.370833
0.362500
0.362500
0.362500
0.358333
0.362500
0.362500
0.354167
0.362500
0.366667
0.350000
0.366667
0.362500
0.362500
0.362500
0.362500
0.362500
0.362500
0.358333
0.362500
0.362500
0.362500
0.358333
0.366667
0.362500
0.354167
0.366667
0.366667
0.358333
0.362500
0.358333
0.366667
0.362500
0.362500
0.362500
0.358333
0.366667
0.366667
0.358333
0.362500
0.358333
0.362500
0.358333
0.362500
0.366667
0.354167
0.366667
0.370833
0.354167
0.362500
0.366667
0.362500
0.358333
0.362500
0.366667
0.354167
0.362500
0.370833
0.354167
0.362500
0.366667
0.362500
0.362500
0.354167
0.366667
0.370833
0.350000
0.366667
0.366667
0.358333
0.354167
0.366667
0.366667
0.358333
0.366667
0.354167
0.362500
0.366667
0.358333
0.362500
0.362500
0.362500
0.362500
0.358333
0.358333
0.366667
0.362500
0.362500
0.366667
0.350000
0.366667
0.366667
0.358333
0.358333
0.362500
0.362500
0.362500
0.350000
0.366667
0.366667
0.362500
0.362500
0.358333
0.358333
0.362500
0.354167
0.362500
0.366667
0.358333
0.358333
0.354167
0.362500
0.362500
0.350000
0.370833
0.366667
0.358333
0.366667
0.354167
0.362500
0.362500
0.362500
0.362500
0.358333
0.362500
0.366667
0.350000
0.362500
0.366667
0.362500
0.358333
0.358333
0.366667
0.358333
0.362500
0.354167
0.341667
0.362500
0.375000
0.345833
0.362500
0.412500
0.425000
0.616667
0.379167
0.425000
0.404167
0.391667
0.370833
0.337500
0.320833
0.329167
0.395833
0.383333
0.358333
0.354167
0.362500
0.358333
0.358333
0.358333
0.362500
0.358333
0.358333
0.358333
0.354167
0.341667
0.370833
0.366667
0.354167
0.362500
0.358333
0.354167
0.362500
0.362500
0.354167
0.358333
0.370833
0.350000
0.358333
0.366667
0.358333
0.337500
0.341667
0.383333
0.370833
0.345833
0.366667
0.362500
0.354167
0.337500
0.370833
0.375000
0.350000
0.345833
0.312500
0.395833
0.425000
0.433333
0.395833
0.366667
0.362500
0.354167
0.362500
0.350000
0.350000
0.354167
0.358333
0.358333
0.379167
0.379167
0.366667
0.350000
0.325000
0.395833
0.387500
0.341667
0.312500
0.383333
0.383333
0.341667
0.316667
0.320833
0.345833
0.350000
1.658333
1.412500
1.058333
1.037500
0.970833
0.908333
1.129167
1.295833
0.970833
0.983333
0.958333
0.945833
0.920833
0.920833
0.912500
0.912500
0.904167
0.870833
0.916667
1.208333
1.054167
0.950000
0.933333
0.933333
0.929167
0.929167
0.925000
0.925000
0.920833
0.925000
0.929167
0.925000
0.929167
0.833333
0.929167
0.570833
0.929167
0.604167
1.129167
0.587500
0.237500
0.508333
0.625000
1.070833
0.583333
0.229167
0.383333
0.366667
0.325000
0.325000
0.320833
0.329167
0.350000
0.591667
0.612500
0.350000
0.591667
0.162500
0.545833
0.370833
0.354167
0.700000
0.300000
0.704167
0.266667
0.316667
0.329167
0.350000
0.379167
0.387500
0.416667
0.383333
0.370833
0.375000
0.366667
0.370833
0.366667
0.341667
0.337500
0.345833
0.333333
0.370833
0.416667
0.350000
0.358333
0.400000
0.370833
0.420833
1.237500
1.329167
1.020833
1.237500
1.045833
1.000000
1.237500
0.995833
0.954167
1.191667
0.595833
0.804167
0.725000
0.608333
0.508333
1.245833
0.579167
0.262500
0.383333
0.383333
0.350000
0.350000
0.370833
0.575000
0.270833
0.358333
0.362500
0.354167
0.354167
0.354167
0.354167
0.354167
0.350000
0.358333
0.358333
0.350000
0.354167
0.354167
0.354167
0.354167
0.358333
0.358333
0.362500
0.358333
0.358333
0.362500
0.358333
0.354167
0.366667
0.358333
0.362500
0.362500
0.358333
0.358333
0.366667
0.358333
0.366667
0.358333
0.362500
0.366667
0.362500
0.350000
0.366667
0.370833
0.366667
0.358333
0.366667
0.366667
0.362500
0.362500
0.362500
0.370833
0.366667
0.350000
0.366667
0.379167
0.366667
0.362500
0.366667
0.366667
0.362500
0.362500
0.370833
0.366667
0.370833
0.362500
0.366667
0.366667
0.354167
0.366667
0.370833
0.366667
0.370833
0.362500
0.362500
0.366667
0.366667
0.358333
0.366667
0.375000
0.366667
0.358333
0.366667
0.366667
0.366667
0.366667
0.366667
0.370833
0.362500
0.362500
0.370833
0.358333
0.370833
0.370833
0.366667
0.358333
0.366667
0.366667
0.358333
0.366667
0.375000
0.366667
0.354167
0.366667
0.375000
0.358333
0.366667
0.370833
0.358333
0.366667
0.370833
0.362500
0.366667
0.366667
0.358333
0.370833
0.370833
0.354167
0.366667
0.366667
0.358333
0.366667
0.370833
0.362500
0.366667
0.362500
0.362500
0.366667
0.358333
0.366667
0.366667
0.358333
0.366667
0.366667
0.354167
0.362500
0.370833
0.362500
0.362500
0.362500
0.362500
0.366667
0.366667
0.354167
0.370833
0.370833
0.354167
0.362500
0.370833
0.358333
0.366667
0.362500
0.362500
0.362500
0.358333
0.366667
0.370833
0.354167
0.370833
0.370833
0.354167
0.362500
0.362500
0.366667
0.358333
0.362500
0.366667
0.354167
0.362500
0.370833
0.362500
0.362500
0.362500
0.366667
0.366667
0.358333
0.362500
0.362500
0.366667
0.358333
0.366667
0.366667
0.354167
0.362500
0.366667
0.366667
0.362500
0.362500
0.362500
0.362500
0.366667
0.362500
0.362500
0.358333
0.366667
0.366667
0.362500
0.366667
0.362500
0.362500
0.362500
0.362500
0.358333
0.366667
0.366667
0.358333
0.362500
0.366667
0.358333
0.366667
0.362500
0.362500
0.362500
0.362500
0.354167
0.370833
0.366667
0.350000
0.370833
0.370833
0.350000
0.366667
0.370833
0.358333
0.362500
0.358333
0.366667
0.362500
0.358333
0.362500
0.366667
0.354167
0.366667
0.366667
0.358333
0.362500
0.362500
0.362500
0.358333
0.362500
0.370833
0.350000
0.366667
0.362500
0.362500
0.362500
0.362500
0.358333
0.358333
0.362500
0.362500
0.358333
0.362500
0.362500
0.362500
0.358333
0.366667
0.366667
0.350000
0.362500
0.366667
0.362500
0.362500
0.354167
0.362500
0.366667
0.362500
0.362500
0.362500
0.354167
0.366667
0.358333
0.362500
0.362500
0.362500
0.362500
0.362500
0.362500
0.358333
0.362500
0.362500
0.362500
0.362500
0.366667
0.362500
0.366667
0.358333
0.362500
0.366667
0.362500
0.358333
0.362500
0.358333
0.362500
0.362500
0.358333
0.366667
0.366667
0.362500
0.358333
0.362500
0.366667
0.354167
0.366667
0.366667
0.358333
0.362500
0.366667
0.354167
0.366667
0.370833
0.358333
0.362500
0.358333
0.366667
0.366667
0.358333
0.366667
0.358333
0.362500
0.362500
0.362500
0.362500
0.362500
0.362500
0.362500
0.354167
0.362500
0.366667
0.362500
0.358333
0.366667
0.362500
0.358333
0.366667
0.354167
0.362500
0.366667
0.362500
0.358333
0.362500
0.354167
0.362500
0.366667
0.358333
0.358333
0.366667
0.350000
0.362500
0.366667
0.366667
0.350000
0.354167
0.370833
0.362500
0.354167
0.341667
0.366667
0.379167
0.362500
0.354167
0.350000
0.354167
0.695833
0.762500
0.325000
1.425000
1.016667
0.958333
0.900000
1.079167
1.325000
0.979167
0.979167
0.950000
0.950000
0.941667
0.933333
0.950000
0.941667
0.925000
0.916667
0.916667
0.925000
0.887500
0.875000
0.958333
0.862500
1.166667
1.058333
0.958333
0.941667
0.950000
0.929167
0.841667
1.020833
0.929167
0.925000
0.920833
0.358333
1.254167
0.591667
0.229167
0.354167
0.391667
0.354167
0.308333
