0.550000
0.554167
0.558333
0.562500
0.558333
0.554167
0.554167
0.554167
0.554167
0.558333
0.558333
0.554167
0.554167
0.562500
0.562500
0.554167
0.554167
0.558333
0.558333
0.558333
0.550000
0.558333
0.554167
0.554167
0.562500
0.554167
0.554167
0.550000
0.554167
0.266667
0.291667
0.387500
0.383333
0.333333
0.554167
0.554167
0.558333
0.558333
0.550000
0.554167
0.550000
0.558333
0.454167
0.658333
0.554167
0.554167
0.250000
0.304167
0.558333
0.545833
0.579167
0.529167
0.554167
0.558333
0.558333
0.554167
0.550000
0.554167
0.554167
0.558333
0.562500
0.554167
0.554167
0.554167
0.558333
0.562500
0.558333
0.554167
0.554167
0.270833
0.845833
0.329167
0.229167
0.716667
0.575000
0.558333
0.366667
0.562500
0.654167
0.458333
0.350000
0.204167
0.404167
0.541667
0.729167
0.550000
0.554167
0.558333
0.562500
0.562500
0.550000
0.554167
0.554167
0.558333
0.562500
0.558333
0.554167
0.554167
0.558333
0.562500
0.550000
0.741667
0.366667
0.558333
0.558333
0.558333
0.554167
0.554167
0.554167
0.558333
0.562500
0.554167
0.554167
0.554167
0.554167
0.304167
0.220833
0.595833
0.558333
0.562500
0.558333
0.445833
0.666667
0.558333
0.662500
0.383333
0.375000
0.345833
0.350000
0.287500
0.245833
0.266667
0.133333
0.870833
0.637500
0.470833
0.275000
0.291667
0.566667
0.554167
0.554167
0.750000
0.370833
0.562500
0.558333
0.550000
0.562500
0.562500
0.562500
0.558333
0.558333
0.558333
0.558333
0.562500
0.458333
0.666667
0.325000
0.066667
0.412500
0.308333
0.562500
0.704167
0.250000
0.554167
0.725000
0.558333
0.566667
0.558333
0.554167
0.554167
0.558333
0.562500
0.562500
0.554167
0.554167
0.558333
0.562500
0.562500
0.558333
0.554167
0.554167
0.558333
0.562500
0.562500
0.554167
0.554167
0.554167
0.562500
0.562500
0.558333
0.641667
0.462500
0.562500
0.558333
0.562500
0.566667
0.566667
0.558333
0.558333
0.562500
0.562500
0.570833
0.558333
0.558333
0.558333
0.562500
0.562500
0.554167
0.558333
0.558333
0.566667
0.554167
0.554167
0.554167
0.554167
0.558333
0.562500
0.550000
0.554167
0.550000
0.554167
0.558333
0.558333
0.550000
0.554167
0.554167
0.558333
0.554167
0.554167
0.275000
0.695833
0.241667
0.354167
0.341667
0.433333
0.391667
0.645833
0.125000
0.354167
0.554167
0.558333
0.550000
0.550000
0.550000
0.554167
0.554167
0.558333
0.558333
0.545833
0.550000
0.550000
0.550000
0.554167
0.558333
0.550000
0.550000
0.550000
0.558333
0.550000
0.550000
0.550000
0.550000
0.554167
0.558333
0.550000
0.550000
0.550000
0.554167
0.554167
0.550000
0.308333
0.241667
0.554167
0.550000
0.554167
0.554167
0.550000
0.545833
0.325000
0.225000
0.229167
0.495833
0.395833
0.400000
0.716667
0.562500
0.558333
0.558333
0.562500
0.562500
0.566667
0.562500
0.558333
0.558333
0.562500
0.566667
0.562500
0.558333
0.554167
0.562500
0.566667
0.554167
0.558333
0.558333
0.562500
0.558333
0.550000
0.554167
0.558333
0.562500
0.554167
0.554167
0.550000
0.554167
0.562500
0.554167
0.554167
0.554167
0.554167
0.416667
0.641667
0.570833
0.554167
0.558333
0.558333
0.554167
0.554167
0.550000
0.554167
0.558333
0.550000
0.554167
0.550000
0.554167
0.554167
0.550000
0.550000
0.554167
0.550000
0.554167
0.554167
0.554167
0.370833
0.729167
0.550000
0.558333
0.554167
0.550000
0.550000
0.558333
0.554167
0.554167
0.550000
0.554167
0.558333
0.550000
0.554167
0.558333
0.558333
0.550000
0.550000
0.554167
0.562500
0.554167
0.554167
0.550000
0.558333
0.558333
0.462500
0.641667
0.554167
0.558333
0.558333
0.550000
0.550000
0.554167
0.554167
0.554167
0.550000
0.441667
0.337500
0.300000
0.375000
0.741667
0.545833
0.345833
0.645833
0.641667
0.566667
0.550000
0.545833
0.545833
0.550000
0.550000
0.554167
0.558333
0.550000
0.550000
0.550000
0.558333
0.558333
0.554167
0.550000
0.554167
0.558333
0.558333
0.554167
0.550000
0.554167
0.554167
0.558333
0.550000
0.316667
0.237500
0.550000
0.554167
0.275000
0.433333
0.400000
0.245833
0.312500
0.558333
0.562500
0.558333
0.562500
0.562500
0.558333
0.554167
0.554167
0.554167
0.562500
0.562500
0.554167
0.554167
0.558333
0.558333
0.562500
0.554167
0.550000
0.554167
0.558333
0.562500
0.550000
0.554167
0.554167
0.558333
0.550000
0.550000
0.550000
0.554167
0.558333
0.550000
0.545833
0.550000
0.550000
0.550000
0.550000
0.550000
0.554167
0.550000
0.545833
0.550000
0.550000
0.550000
0.554167
0.550000
0.545833
0.550000
0.550000
0.554167
0.550000
0.550000
0.550000
0.550000
0.558333
0.545833
0.550000
0.550000
0.545833
0.562500
0.550000
0.545833
0.550000
0.550000
0.554167
0.558333
0.550000
0.550000
0.416667
0.683333
0.558333
0.554167
0.550000
0.550000
0.550000
0.554167
0.554167
0.554167
0.550000
0.133333
0.412500
0.550000
0.550000
0.233333
0.325000
0.550000
0.545833
0.550000
0.550000
0.558333
0.558333
0.550000
0.550000
0.554167
0.554167
0.558333
0.554167
0.550000
0.550000
0.554167
0.558333
0.554167
0.558333
0.545833
0.550000
0.554167
0.558333
0.554167
0.550000
0.550000
0.550000
0.554167
0.558333
0.550000
0.550000
0.550000
0.612500
0.650000
0.395833
0.550000
0.550000
0.558333
0.550000
0.558333
0.558333
0.550000
0.554167
0.550000
0.554167
0.200000
0.354167
0.445833
0.675000
0.550000
0.550000
0.425000
0.350000
0.179167
0.704167
0.558333
0.550000
0.545833
0.554167
0.554167
0.554167
0.554167
0.550000
0.550000
0.550000
0.558333
0.554167
0.550000
0.550000
0.554167
0.554167
0.554167
0.550000
0.550000
0.550000
0.554167
0.554167
0.554167
0.550000
0.545833
0.550000
0.300000
0.250000
0.554167
0.550000
0.545833
0.545833
0.550000
0.554167
0.545833
0.545833
0.550000
0.437500
0.629167
0.562500
0.550000
0.554167
0.554167
0.554167
0.550000
0.400000
0.533333
0.725000
0.562500
0.558333
0.554167
0.562500
0.562500
0.562500
0.554167
0.550000
0.558333
0.558333
0.562500
0.554167
0.550000
0.554167
0.554167
0.562500
0.554167
0.550000
0.550000
0.554167
0.554167
0.558333
0.545833
0.550000
0.550000
0.550000
0.558333
0.550000
0.550000
0.545833
0.554167
0.554167
0.554167
0.550000
0.545833
0.550000
0.550000
0.550000
0.558333
0.545833
0.545833
0.550000
0.550000
0.550000
0.554167
0.545833
0.550000
0.545833
0.545833
0.550000
0.550000
0.554167
0.545833
0.550000
0.545833
0.550000
0.554167
0.495833
0.608333
0.550000
0.545833
0.554167
0.558333
0.550000
0.550000
0.554167
0.550000
0.558333
0.550000
0.554167
0.550000
0.554167
0.554167
0.550000
0.550000
0.550000
0.550000
0.475000
0.637500
0.550000
0.233333
0.316667
0.550000
0.550000
0.562500
0.550000
0.550000
0.550000
0.554167
0.554167
0.550000
0.550000
0.550000
0.554167
0.554167
0.550000
0.550000
0.554167
0.550000
0.558333
0.554167
0.550000
0.550000
0.550000
0.550000
0.241667
0.316667
0.550000
0.554167
0.550000
0.550000
0.558333
0.550000
0.550000
0.550000
0.554167
0.558333
0.554167
0.550000
0.554167
0.550000
0.554167
0.554167
0.554167
0.550000
0.550000
0.550000
0.550000
0.550000
0.545833
0.550000
0.550000
0.550000
0.550000
0.545833
0.545833
0.545833
0.545833
0.545833
0.550000
0.550000
0.550000
0.550000
0.550000
0.545833
0.550000
0.554167
0.554167
0.550000
0.550000
0.550000
0.558333
0.558333
0.550000
0.554167
0.554167
0.558333
0.554167
0.554167
0.550000
0.550000
0.558333
0.558333
0.550000
0.550000
0.554167
0.558333
0.550000
0.550000
0.550000
0.554167
0.554167
0.554167
0.595833
0.504167
0.550000
0.600000
0.004167
0.508333
0.533333
0.570833
0.550000
0.550000
0.554167
0.558333
0.200000
0.350000
0.550000
0.550000
0.304167
0.245833
0.545833
0.554167
0.558333
0.545833
0.550000
0.550000
0.550000
0.558333
0.550000
0.545833
0.550000
0.550000
0.558333
0.550000
0.550000
0.550000
0.550000
0.554167
0.558333
0.550000
0.550000
0.550000
0.554167
0.554167
0.558333
0.550000
0.550000
0.554167
0.550000
0.554167
0.716667
0.395833
0.550000
0.550000
0.554167
0.558333
0.554167
0.554167
0.550000
0.558333
0.562500
0.558333
0.558333
0.558333
0.558333
0.562500
0.570833
0.558333
0.558333
0.562500
0.566667
0.562500
0.558333
0.558333
0.562500
0.566667
0.562500
0.558333
0.558333
0.558333
0.562500
0.562500
0.558333
0.554167
0.558333
0.558333
0.566667
0.554167
0.554167
0.550000
0.558333
0.562500
0.550000
0.554167
0.550000
0.554167
0.558333
0.554167
0.550000
0.554167
0.550000
0.570833
0.541667
0.550000
0.554167
0.550000
0.558333
0.554167
0.554167
0.550000
0.554167
0.558333
0.554167
0.562500
0.554167
0.558333
0.554167
0.558333
0.558333
0.558333
0.558333
0.554167
0.558333
0.562500
0.558333
0.558333
0.554167
0.233333
0.883333
0.554167
0.558333
0.562500
0.558333
0.554167
0.554167
0.558333
0.562500
0.554167
0.554167
0.550000
0.558333
0.562500
0.554167
0.550000
0.554167
0.550000
0.558333
0.558333
0.554167
0.550000
0.550000
0.554167
0.558333
0.554167
0.550000
0.550000
0.554167
0.554167
0.554167
0.550000
0.550000
0.550000
0.550000
0.558333
0.550000
0.550000
0.545833
0.554167
0.325000
0.612500
0.387500
0.375000
0.262500
0.500000
0.258333
0.112500
0.458333
0.545833
0.554167
0.545833
0.541667
0.550000
0.554167
0.550000
0.545833
0.545833
0.545833
0.545833
0.558333
0.550000
0.545833
0.545833
0.545833
0.550000
0.554167
0.545833
0.545833
0.545833
0.545833
0.554167
0.550000
0.545833
0.545833
0.545833
0.550000
0.545833
0.554167
0.545833
0.550000
0.545833
0.550000
0.550000
0.550000
0.554167
0.550000
0.320833
0.354167
0.479167
0.495833
0.550000
0.558333
0.550000
0.458333
0.925000
0.279167
0.433333
0.637500
0.754167
0.370833
0.550000
0.550000
0.558333
0.554167
0.550000
0.545833
0.550000
0.550000
0.558333
0.554167
0.554167
0.545833
0.550000
0.550000
0.550000
0.554167
0.554167
0.550000
0.550000
0.550000
0.550000
0.558333
0.550000
0.545833
0.550000
0.550000
0.550000
0.554167
0.550000
0.550000
0.550000
0.550000
0.550000
0.558333
0.550000
0.550000
0.550000
0.550000
0.554167
0.550000
0.550000
0.554167
0.554167
0.554167
0.558333
0.450000
0.654167
0.554167
0.558333
0.562500
0.550000
0.554167
0.550000
0.554167
0.562500
0.554167
0.550000
0.550000
0.554167
0.558333
0.550000
0.550000
0.550000
0.554167
0.554167
0.550000
0.550000
0.550000
0.554167
0.270833
0.283333
0.550000
0.550000
0.550000
0.554167
0.554167
0.554167
0.554167
0.554167
0.287500
0.279167
0.187500
0.350000
0.554167
0.558333
0.554167
0.558333
0.554167
0.558333
0.558333
0.558333
0.554167
0.558333
0.558333
0.354167
0.208333
0.554167
0.554167
0.558333
0.562500
0.562500
0.554167
0.554167
0.554167
0.558333
0.562500
0.558333
0.550000
0.554167
0.554167
0.558333
0.558333
0.550000
0.554167
0.550000
0.554167
0.562500
0.550000
0.550000
0.550000
0.558333
0.554167
0.554167
0.441667
0.637500
0.570833
0.558333
0.433333
0.645833
0.570833
0.558333
0.558333
0.558333
0.241667
0.320833
0.554167
0.558333
0.716667
0.262500
0.220833
0.479167
0.558333
0.554167
0.562500
0.562500
0.562500
0.558333
0.558333
0.558333
0.562500
0.566667
0.558333
0.558333
0.558333
0.562500
0.566667
0.558333
0.554167
0.558333
0.558333
0.562500
