0.525000
0.520833
0.500000
0.533333
0.525000
0.525000
0.504167
0.533333
0.525000
0.525000
0.504167
0.533333
0.525000
0.525000
0.525000
0.520833
0.516667
0.520833
0.520833
0.520833
0.516667
0.520833
0.520833
0.516667
0.520833
0.516667
0.520833
0.516667
0.516667
0.516667
0.516667
0.516667
0.516667
0.495833
0.529167
0.520833
0.500000
0.529167
0.525000
0.520833
0.500000
0.529167
0.504167
0.537500
0.520833
0.500000
0.533333
0.525000
0.520833
0.520833
0.520833
0.525000
0.520833
0.520833
0.520833
0.525000
0.520833
0.520833
0.520833
0.520833
0.520833
0.520833
0.520833
0.525000
0.520833
0.616667
0.404167
0.533333
0.525000
0.520833
0.500000
0.529167
0.525000
0.520833
0.516667
0.495833
0.533333
0.229167
0.291667
0.516667
0.500000
0.529167
0.525000
0.500000
0.533333
0.525000
0.525000
0.500000
0.537500
0.525000
0.504167
0.537500
0.504167
0.541667
0.504167
0.533333
0.508333
0.533333
0.525000
0.525000
0.500000
0.533333
0.525000
0.525000
0.500000
0.529167
0.525000
0.525000
0.520833
0.500000
0.533333
0.520833
0.520833
0.500000
0.529167
0.525000
0.525000
0.525000
0.525000
0.504167
0.533333
0.504167
0.537500
0.508333
0.533333
0.504167
0.537500
0.504167
0.533333
0.525000
0.520833
0.500000
0.529167
0.520833
0.520833
0.516667
0.516667
0.495833
0.525000
0.520833
0.512500
0.516667
0.491667
0.525000
0.495833
0.525000
0.495833
0.525000
0.500000
0.525000
0.500000
0.529167
0.500000
0.529167
0.500000
0.529167
0.504167
0.533333
0.500000
0.541667
0.504167
0.545833
0.533333
0.533333
0.533333
0.508333
0.550000
0.512500
0.541667
0.529167
0.529167
0.525000
0.525000
0.520833
1.045833
0.516667
0.520833
0.516667
0.516667
0.516667
0.508333
0.516667
0.512500
0.508333
0.512500
0.512500
0.487500
0.516667
0.508333
0.487500
0.512500
0.508333
0.987500
0.508333
0.508333
0.500000
0.483333
0.491667
0.508333
0.504167
0.483333
0.987500
0.504167
0.479167
0.508333
0.495833
0.479167
0.504167
0.495833
0.475000
0.504167
0.475000
0.500000
0.475000
0.504167
0.475000
0.504167
0.475000
0.504167
0.475000
0.504167
0.470833
0.504167
0.479167
0.504167
0.479167
0.504167
0.475000
0.508333
0.475000
0.508333
0.483333
0.508333
0.470833
0.508333
0.470833
0.508333
0.495833
0.495833
0.475000
0.504167
0.475000
0.508333
0.495833
0.491667
0.470833
0.500000
0.479167
0.504167
0.470833
0.508333
0.475000
0.500000
0.475000
0.500000
0.470833
0.495833
0.470833
0.500000
0.470833
0.500000
0.487500
0.487500
0.466667
0.495833
0.470833
0.495833
0.470833
0.475000
0.479167
0.500000
0.466667
0.479167
0.479167
0.475000
0.479167
0.500000
0.466667
0.479167
0.479167
0.504167
0.470833
0.479167
0.483333
0.483333
0.504167
0.479167
0.504167
0.470833
0.487500
0.487500
0.487500
0.487500
0.975000
0.508333
0.479167
0.487500
0.383333
0.616667
0.475000
0.487500
0.487500
0.508333
0.475000
0.504167
0.470833
0.487500
0.483333
0.483333
0.483333
0.483333
0.504167
0.470833
0.483333
0.479167
0.479167
0.483333
0.483333
0.500000
0.475000
0.483333
0.187500
0.295833
0.483333
0.483333
0.483333
0.483333
0.483333
0.487500
0.354167
0.612500
0.483333
0.479167
0.479167
0.483333
0.483333
0.308333
0.179167
0.483333
0.504167
0.237500
0.229167
0.704167
0.270833
0.491667
0.491667
0.516667
0.479167
0.520833
0.483333
0.491667
0.491667
0.495833
0.487500
0.491667
0.491667
0.491667
0.491667
0.487500
0.487500
0.487500
0.483333
0.487500
0.483333
0.483333
0.479167
0.483333
0.483333
0.479167
0.479167
0.479167
0.483333
0.479167
0.479167
0.958333
0.475000
0.475000
0.479167
0.475000
0.479167
0.479167
0.475000
0.479167
0.479167
0.950000
0.479167
0.479167
0.520833
0.433333
0.475000
0.270833
0.675000
1.037500
0.387500
0.583333
0.366667
0.475000
0.475000
0.475000
0.470833
0.475000
0.475000
0.475000
0.475000
0.475000
0.479167
0.475000
0.475000
0.479167
0.479167
0.479167
0.475000
0.479167
0.479167
0.620833
0.329167
0.475000
0.475000
0.475000
0.479167
0.470833
0.475000
0.475000
0.479167
0.470833
0.479167
0.470833
0.475000
0.475000
0.475000
0.470833
0.945833
0.475000
0.475000
0.470833
0.475000
0.475000
0.470833
0.470833
0.475000
0.945833
0.475000
0.470833
0.470833
0.475000
0.475000
0.475000
0.475000
0.470833
0.479167
0.475000
0.475000
0.479167
0.475000
0.479167
0.337500
0.616667
0.479167
0.475000
0.958333
0.475000
0.479167
0.475000
0.475000
0.320833
0.637500
0.479167
0.479167
0.479167
0.483333
0.479167
0.483333
0.483333
0.479167
0.483333
0.483333
0.483333
0.479167
0.483333
0.487500
0.479167
0.483333
0.479167
0.483333
0.483333
0.483333
0.483333
0.483333
0.487500
0.483333
0.487500
0.975000
0.487500
0.491667
0.487500
0.491667
0.491667
0.491667
0.491667
0.491667
0.491667
0.495833
0.491667
0.491667
0.495833
0.520833
0.479167
0.491667
0.495833
0.516667
0.483333
0.500000
0.495833
0.495833
0.500000
0.495833
0.495833
0.495833
0.491667
0.495833
0.491667
0.491667
0.491667
0.491667
0.491667
0.487500
0.491667
0.491667
0.487500
0.487500
0.487500
0.483333
0.487500
0.487500
0.487500
0.458333
0.512500
0.491667
0.970833
0.487500
0.487500
0.487500
0.491667
0.487500
0.487500
0.483333
0.491667
0.487500
0.491667
0.487500
0.487500
0.487500
0.491667
0.491667
0.487500
0.266667
0.220833
0.487500
0.491667
0.487500
0.487500
0.233333
0.254167
0.487500
0.487500
0.483333
0.483333
0.487500
0.483333
0.487500
0.483333
0.483333
0.487500
0.483333
0.483333
0.483333
0.483333
0.487500
0.487500
0.483333
0.487500
0.487500
0.487500
0.487500
0.483333
0.487500
0.483333
0.491667
0.483333
0.487500
0.479167
0.491667
0.487500
0.483333
0.487500
0.483333
0.487500
0.483333
0.487500
0.487500
0.487500
0.483333
0.487500
0.491667
0.487500
0.487500
0.491667
0.487500
0.495833
0.491667
0.491667
0.487500
0.495833
0.491667
0.495833
0.491667
0.495833
0.491667
0.500000
0.495833
0.491667
0.495833
0.495833
0.495833
0.495833
0.491667
0.495833
0.495833
0.500000
0.495833
0.495833
0.495833
0.495833
0.500000
0.495833
0.495833
0.500000
0.495833
0.495833
0.525000
0.483333
0.500000
0.495833
0.500000
0.500000
0.500000
0.500000
0.500000
0.500000
0.500000
0.500000
0.500000
0.500000
0.495833
0.500000
0.500000
0.500000
0.495833
0.495833
0.495833
0.675000
0.333333
0.495833
0.495833
0.495833
0.500000
0.495833
0.500000
0.495833
0.500000
0.504167
0.500000
0.500000
0.504167
0.495833
0.504167
0.495833
0.504167
0.500000
0.504167
0.500000
0.500000
0.504167
0.504167
0.504167
0.500000
0.500000
0.504167
0.500000
0.508333
0.500000
0.504167
0.504167
0.500000
0.508333
0.504167
0.504167
0.504167
0.500000
0.508333
0.508333
0.504167
0.504167
0.504167
0.508333
0.508333
0.504167
0.504167
0.508333
0.504167
0.508333
0.504167
0.504167
0.529167
0.495833
0.504167
0.508333
0.508333
0.504167
0.508333
0.508333
0.504167
0.504167
0.504167
0.504167
0.504167
0.508333
0.504167
0.504167
0.504167
0.508333
0.508333
0.508333
0.508333
0.508333
0.512500
0.512500
0.504167
0.508333
0.533333
0.495833
0.525000
0.495833
0.504167
0.529167
0.495833
0.529167
0.495833
0.504167
0.508333
0.533333
0.495833
0.512500
0.508333
0.512500
0.512500
0.508333
0.508333
0.508333
0.508333
0.533333
0.495833
0.512500
0.504167
0.512500
0.533333
0.500000
0.508333
0.512500
0.537500
0.500000
0.354167
0.670833
0.504167
0.516667
0.537500
0.500000
0.512500
0.508333
1.029167
0.537500
0.495833
0.508333
0.533333
0.491667
0.529167
0.491667
0.525000
0.495833
0.529167
0.491667
0.495833
0.520833
0.529167
0.495833
0.508333
0.529167
0.495833
0.508333
0.508333
0.533333
0.491667
0.529167
0.495833
0.508333
0.529167
0.495833
0.533333
0.491667
0.512500
0.512500
0.508333
0.508333
0.508333
0.508333
0.512500
0.533333
0.495833
0.508333
0.508333
0.512500
0.529167
0.500000
0.508333
0.508333
0.533333
0.495833
0.508333
0.529167
0.495833
0.529167
0.495833
0.504167
0.529167
0.491667
0.525000
0.491667
0.508333
0.525000
0.491667
0.504167
0.504167
0.525000
0.495833
0.500000
0.504167
0.508333
0.495833
0.520833
0.504167
0.504167
0.508333
0.508333
0.508333
0.508333
0.504167
0.508333
0.508333
0.508333
0.508333
0.508333
0.508333
0.508333
0.508333
0.508333
0.508333
0.529167
0.495833
0.508333
0.529167
0.491667
0.508333
0.504167
0.533333
0.495833
0.508333
0.508333
0.525000
0.495833
0.529167
0.491667
0.525000
0.641667
0.195833
0.675000
0.516667
0.487500
0.520833
0.491667
0.500000
0.500000
0.500000
0.470833
0.529167
0.500000
0.495833
0.500000
0.500000
0.500000
0.500000
0.495833
0.500000
0.495833
0.504167
0.500000
0.504167
0.500000
0.495833
0.504167
0.500000
0.504167
0.500000
0.500000
0.500000
0.500000
0.500000
0.495833
0.495833
0.516667
0.487500
0.495833
0.500000
0.500000
0.495833
0.495833
0.495833
0.500000
0.495833
0.491667
0.495833
0.500000
0.491667
0.495833
0.491667
0.491667
0.500000
0.491667
0.491667
0.495833
0.491667
0.495833
0.491667
0.491667
0.495833
0.495833
0.441667
0.541667
0.495833
0.495833
0.495833
0.495833
0.491667
0.495833
0.495833
0.491667
0.495833
0.491667
0.495833
0.495833
0.495833
0.487500
0.500000
0.491667
0.495833
0.491667
0.491667
0.495833
0.491667
0.495833
0.491667
0.491667
0.491667
0.491667
0.495833
0.491667
0.495833
0.491667
0.491667
0.491667
0.495833
0.491667
0.491667
0.491667
0.495833
0.491667
0.495833
0.491667
0.491667
0.495833
0.495833
0.495833
0.495833
0.491667
0.500000
0.495833
0.491667
0.495833
0.495833
0.495833
0.500000
0.491667
0.495833
0.495833
0.495833
0.495833
0.495833
0.495833
0.495833
0.495833
0.495833
0.495833
0.500000
0.491667
0.495833
0.495833
0.495833
0.491667
0.495833
0.491667
0.491667
0.495833
0.491667
0.491667
0.491667
0.491667
0.487500
0.495833
0.487500
0.491667
0.491667
0.487500
0.491667
0.487500
0.491667
0.491667
0.487500
0.491667
0.491667
0.487500
0.491667
0.491667
0.487500
0.491667
0.487500
0.491667
0.491667
0.487500
0.491667
0.491667
0.487500
0.491667
0.487500
0.491667
0.487500
0.491667
0.487500
0.395833
0.575000
0.487500
0.487500
0.487500
0.491667
0.487500
0.487500
0.487500
0.229167
0.258333
0.412500
0.558333
0.483333
0.487500
0.483333
0.483333
0.487500
0.483333
0.483333
0.483333
0.487500
0.487500
0.483333
0.483333
0.483333
0.487500
0.487500
0.483333
0.487500
0.483333
0.487500
0.487500
0.483333
0.487500
0.487500
0.487500
0.483333
0.491667
0.487500
0.491667
0.487500
0.491667
0.491667
0.491667
0.491667
0.495833
0.491667
0.495833
0.495833
0.495833
0.491667
0.991667
0.500000
0.483333
0.491667
0.491667
0.495833
0.487500
0.275000
0.212500
0.491667
0.491667
0.487500
0.637500
0.333333
0.487500
0.487500
0.487500
0.483333
0.487500
0.487500
0.487500
0.487500
0.483333
0.483333
0.487500
0.491667
0.483333
0.483333
0.454167
0.520833
0.487500
0.487500
0.491667
0.487500
0.487500
0.491667
0.495833
0.491667
0.491667
0.491667
0.491667
0.495833
0.491667
0.495833
0.495833
0.495833
0.495833
0.500000
0.500000
0.325000
0.195833
0.491667
0.520833
0.487500
0.516667
0.491667
0.516667
0.483333
0.495833
0.495833
0.495833
0.495833
0.495833
0.495833
0.500000
0.495833
0.495833
0.495833
0.495833
0.495833
0.491667
0.495833
0.491667
0.491667
0.366667
0.616667
0.483333
0.487500
0.491667
0.487500
0.487500
0.487500
0.487500
0.491667
0.487500
0.491667
0.487500
0.495833
0.491667
0.495833
0.495833
0.491667
0.495833
0.495833
0.500000
0.500000
0.495833
0.495833
0.500000
0.500000
0.520833
0.487500
0.500000
0.516667
0.491667
0.520833
0.487500
0.500000
0.520833
0.495833
0.516667
0.491667
0.520833
0.491667
0.520833
0.487500
0.520833
0.491667
0.504167
0.516667
0.487500
0.516667
0.483333
0.516667
0.487500
0.995833
0.512500
0.483333
0.512500
0.483333
0.491667
0.487500
0.512500
0.479167
0.508333
0.500000
0.479167
0.495833
0.495833
0.495833
