0.558333
0.470833
0.500000
0.454167
0.425000
0.416667
0.529167
0.466667
0.766667
0.479167
0.416667
0.475000
0.466667
0.433333
0.554167
0.450000
0.429167
0.570833
0.462500
0.441667
0.741667
0.491667
0.791667
0.491667
0.958333
0.587500
0.704167
0.491667
0.437500
0.450000
0.441667
0.870833
0.541667
0.625000
0.470833
0.433333
0.433333
0.545833
0.604167
0.533333
0.700000
0.487500
0.425000
1.154167
0.554167
0.579167
0.479167
0.450000
0.408333
0.500000
0.483333
0.470833
0.420833
0.437500
0.441667
0.466667
0.433333
0.775000
0.495833
0.466667
0.566667
0.475000
0.429167
0.491667
0.766667
0.483333
0.500000
0.562500
0.470833
0.412500
0.775000
0.454167
1.141667
0.845833
0.579167
0.454167
0.437500
0.429167
0.425000
0.420833
0.425000
0.425000
0.437500
0.454167
0.937500
0.500000
0.433333
0.879167
0.512500
0.679167
0.458333
0.425000
0.579167
0.483333
0.425000
0.429167
0.695833
0.691667
0.475000
0.500000
0.520833
0.454167
0.450000
0.425000
0.504167
0.691667
0.479167
0.704167
0.520833
0.475000
0.441667
0.425000
0.733333
0.537500
0.479167
0.470833
0.441667
0.445833
0.450000
0.437500
0.620833
0.495833
0.787500
0.583333
0.475000
0.633333
0.450000
0.991667
0.816667
0.537500
0.500000
0.495833
0.470833
0.445833
0.670833
0.450000
0.820833
0.533333
0.462500
0.479167
0.575000
0.450000
0.425000
0.412500
0.629167
0.704167
0.725000
0.516667
0.650000
0.458333
0.458333
0.454167
0.491667
0.462500
0.420833
0.587500
0.479167
0.508333
0.695833
0.687500
0.470833
0.433333
0.783333
0.512500
0.445833
0.437500
0.795833
0.587500
0.775000
0.466667
0.412500
0.412500
0.433333
0.433333
0.429167
0.429167
0.916667
0.545833
0.462500
0.937500
0.504167
0.450000
0.433333
0.716667
1.016667
0.812500
0.479167
0.466667
0.437500
0.412500
0.416667
0.420833
0.762500
1.091667
0.704167
0.487500
0.500000
0.441667
0.866667
0.470833
0.687500
0.579167
0.487500
0.433333
0.412500
0.795833
0.512500
0.483333
0.466667
0.437500
0.858333
0.500000
0.654167
0.495833
0.441667
0.429167
0.962500
0.487500
0.600000
0.845833
0.495833
0.416667
0.420833
0.429167
0.433333
0.437500
0.750000
0.912500
0.512500
0.620833
0.454167
0.445833
0.500000
0.512500
0.445833
0.754167
0.450000
0.433333
0.633333
0.491667
0.541667
0.483333
0.670833
0.566667
0.475000
0.412500
0.516667
0.462500
0.429167
0.845833
0.604167
0.487500
0.625000
0.462500
0.712500
0.620833
0.462500
0.425000
0.487500
0.475000
0.429167
0.425000
0.558333
0.766667
0.654167
0.487500
0.675000
0.504167
0.800000
0.483333
0.420833
0.416667
0.675000
0.537500
0.566667
0.470833
0.629167
0.479167
0.466667
0.466667
0.475000
0.445833
0.425000
0.425000
0.770833
0.516667
0.450000
0.425000
0.433333
0.475000
0.458333
0.629167
0.483333
0.729167
0.491667
0.470833
0.441667
0.491667
0.475000
0.833333
0.508333
0.429167
0.433333
0.487500
0.445833
0.429167
1.004167
0.487500
0.450000
0.483333
0.454167
0.762500
0.604167
0.866667
0.662500
0.491667
0.575000
0.729167
0.487500
0.583333
0.466667
0.462500
0.450000
1.033333
0.516667
0.666667
0.475000
0.562500
0.491667
0.441667
0.437500
0.675000
0.495833
0.429167
0.679167
0.625000
0.470833
0.441667
0.883333
0.620833
0.454167
0.916667
0.962500
0.795833
0.633333
0.475000
0.433333
0.641667
0.712500
0.462500
0.412500
0.412500
0.758333
0.483333
0.441667
0.433333
0.812500
0.683333
0.479167
0.416667
0.437500
0.458333
0.483333
0.458333
0.437500
0.829167
0.625000
0.733333
0.487500
0.429167
0.462500
0.475000
0.525000
0.458333
0.525000
0.462500
0.450000
0.666667
0.520833
0.470833
0.566667
0.470833
0.541667
0.712500
0.558333
0.466667
0.504167
0.458333
0.487500
0.454167
0.425000
0.591667
0.470833
0.420833
0.425000
0.933333
0.650000
0.475000
0.429167
0.416667
0.420833
0.429167
0.433333
0.466667
1.158333
0.487500
0.425000
0.420833
0.445833
0.625000
0.600000
0.462500
0.454167
0.441667
0.425000
0.420833
0.425000
0.575000
0.520833
0.450000
0.437500
0.437500
0.470833
0.445833
0.437500
0.775000
0.820833
0.512500
0.504167
0.450000
0.445833
0.654167
0.504167
0.454167
0.458333
0.591667
0.533333
0.450000
0.425000
0.425000
0.537500
0.491667
0.712500
0.554167
0.462500
0.437500
0.433333
0.675000
0.500000
0.512500
0.454167
0.429167
0.591667
0.683333
0.454167
0.495833
0.462500
0.683333
0.633333
0.458333
0.416667
0.841667
0.525000
0.441667
0.879167
0.750000
0.516667
0.450000
0.412500
0.525000
0.725000
0.479167
0.441667
0.420833
0.416667
0.762500
0.533333
0.900000
0.495833
0.433333
0.425000
0.420833
0.625000
0.762500
0.541667
0.450000
0.741667
0.716667
0.487500
0.879167
0.500000
0.433333
0.479167
0.466667
0.437500
0.416667
0.775000
0.620833
0.512500
0.466667
0.516667
0.554167
0.470833
0.595833
0.712500
0.516667
0.429167
0.504167
0.462500
0.416667
0.425000
0.712500
0.683333
0.633333
0.470833
0.466667
0.454167
0.500000
0.475000
0.445833
0.450000
0.483333
0.441667
0.783333
0.583333
0.591667
0.591667
0.462500
0.425000
0.762500
0.550000
0.658333
0.462500
0.429167
0.604167
0.633333
0.470833
0.416667
0.412500
0.433333
0.595833
0.820833
0.520833
0.462500
0.454167
0.508333
0.466667
0.454167
0.491667
0.795833
0.475000
0.437500
0.541667
0.462500
0.416667
0.454167
0.450000
0.433333
0.425000
0.712500
0.487500
0.425000
0.462500
0.450000
0.445833
0.512500
0.483333
0.766667
0.445833
0.429167
0.979167
0.520833
0.454167
0.416667
0.420833
0.587500
0.475000
0.441667
0.512500
0.529167
0.495833
0.454167
0.645833
0.470833
0.420833
0.495833
0.716667
0.562500
0.462500
0.741667
0.487500
0.445833
0.700000
0.662500
0.483333
0.483333
0.437500
0.812500
0.500000
0.420833
0.454167
0.500000
0.487500
0.704167
0.479167
0.441667
0.637500
0.608333
0.712500
0.491667
0.658333
0.783333
0.779167
0.754167
0.616667
0.483333
0.583333
0.462500
0.633333
0.483333
0.441667
0.458333
0.808333
0.516667
0.475000
0.491667
0.458333
0.420833
0.441667
0.587500
0.700000
0.491667
0.600000
0.475000
0.425000
0.445833
0.445833
0.462500
0.475000
0.562500
0.800000
0.675000
0.483333
0.654167
0.516667
0.445833
0.458333
0.479167
0.695833
0.491667
0.720833
0.591667
0.462500
0.433333
0.450000
0.562500
0.570833
0.454167
0.420833
0.483333
0.579167
0.533333
0.466667
0.679167
0.495833
0.516667
0.537500
0.716667
0.525000
0.454167
0.479167
0.491667
0.458333
0.741667
0.575000
0.629167
0.491667
0.433333
0.412500
0.416667
0.608333
0.491667
0.983333
0.500000
0.800000
0.495833
0.591667
0.483333
0.945833
0.512500
0.412500
0.441667
0.579167
0.479167
0.650000
0.487500
0.425000
0.445833
0.466667
0.462500
0.687500
0.554167
0.458333
0.429167
0.508333
0.462500
0.495833
0.516667
0.475000
0.529167
0.479167
0.937500
0.500000
0.716667
0.675000
0.470833
0.425000
0.475000
0.458333
0.666667
0.470833
0.425000
0.779167
0.483333
0.941667
0.541667
0.720833
0.654167
0.458333
0.395833
0.425000
0.708333
0.479167
0.454167
0.483333
0.458333
0.454167
0.475000
0.675000
0.487500
0.729167
0.512500
0.429167
0.445833
0.429167
0.416667
0.754167
0.754167
0.604167
0.470833
0.420833
0.425000
0.429167
0.433333
0.754167
0.845833
0.495833
0.462500
0.441667
0.704167
0.558333
0.462500
0.487500
0.445833
0.491667
0.458333
0.437500
0.675000
0.545833
0.458333
0.775000
0.483333
0.429167
0.425000
0.479167
0.545833
0.570833
0.462500
0.416667
0.454167
0.470833
0.562500
0.658333
0.466667
0.458333
0.641667
0.483333
0.966667
0.516667
0.575000
0.483333
0.466667
0.900000
0.516667
0.650000
0.729167
0.633333
0.537500
0.458333
0.416667
0.412500
0.500000
0.487500
0.458333
0.695833
0.675000
0.725000
0.475000
0.429167
0.429167
0.441667
0.570833
0.458333
0.416667
0.770833
0.841667
0.812500
0.500000
0.462500
0.729167
0.854167
0.495833
0.662500
0.704167
0.716667
0.495833
0.454167
0.570833
0.937500
0.570833
0.466667
0.425000
0.408333
0.450000
0.483333
0.470833
0.508333
0.495833
0.454167
0.562500
0.454167
0.420833
0.733333
0.508333
0.441667
0.412500
0.416667
0.620833
0.475000
0.425000
0.437500
0.504167
0.491667
0.441667
0.725000
0.762500
0.475000
0.445833
0.433333
0.416667
0.545833
0.525000
0.516667
0.450000
0.958333
0.595833
0.470833
0.433333
0.887500
0.495833
0.508333
0.466667
0.495833
0.612500
0.550000
0.537500
0.495833
0.454167
0.537500
0.750000
0.491667
0.429167
0.470833
0.783333
0.470833
0.429167
0.508333
0.483333
0.608333
0.595833
0.462500
0.512500
0.479167
0.437500
0.416667
0.425000
0.866667
0.500000
0.500000
0.541667
0.458333
0.700000
0.445833
0.416667
0.745833
0.662500
0.470833
0.433333
0.829167
0.479167
0.425000
0.412500
0.433333
0.437500
0.533333
0.466667
0.441667
0.433333
0.454167
0.462500
0.500000
0.750000
0.708333
0.441667
0.412500
0.720833
0.462500
0.495833
0.483333
0.820833
0.820833
0.704167
0.562500
0.504167
0.500000
0.462500
0.445833
0.425000
0.487500
0.466667
0.483333
0.429167
0.433333
0.487500
0.608333
0.583333
0.691667
0.516667
0.787500
0.500000
0.437500
0.466667
0.625000
0.466667
0.420833
1.004167
0.516667
0.495833
0.441667
0.412500
0.416667
0.425000
0.495833
0.733333
0.537500
0.679167
0.479167
0.425000
0.429167
0.475000
0.450000
0.504167
0.462500
0.429167
0.520833
0.454167
0.425000
0.470833
0.433333
0.450000
0.454167
0.562500
0.600000
0.470833
0.566667
0.541667
0.487500
0.445833
0.416667
0.966667
0.483333
0.483333
0.441667
0.433333
0.429167
0.429167
0.445833
0.475000
0.441667
0.437500
0.679167
0.479167
0.425000
0.766667
0.491667
0.445833
0.533333
0.795833
0.816667
0.462500
0.479167
0.466667
0.770833
0.475000
0.604167
0.466667
0.650000
0.475000
0.708333
0.479167
0.441667
0.525000
0.454167
0.416667
0.745833
0.900000
0.858333
0.470833
0.408333
0.475000
0.466667
0.991667
0.500000
0.445833
0.508333
0.695833
0.666667
0.525000
0.491667
0.441667
0.429167
0.429167
0.420833
0.625000
0.475000
0.516667
0.466667
0.783333
0.508333
0.441667
0.433333
0.454167
0.458333
0.683333
0.450000
0.775000
0.495833
0.470833
0.429167
0.462500
0.783333
0.750000
0.537500
0.450000
0.416667
0.733333
0.695833
0.470833
0.491667
0.462500
0.416667
0.433333
0.508333
0.450000
0.425000
0.729167
0.491667
0.512500
0.645833
0.716667
0.866667
0.629167
0.479167
0.425000
0.458333
0.433333
0.745833
0.775000
0.591667
0.475000
0.425000
0.616667
0.483333
0.825000
0.470833
0.420833
0.416667
0.695833
0.466667
0.412500
0.416667
0.429167
0.437500
0.716667
0.495833
0.437500
0.429167
0.429167
0.475000
0.450000
0.495833
0.445833
0.533333
0.475000
0.437500
0.441667
0.429167
0.433333
0.837500
0.500000
0.429167
0.920833
0.608333
0.483333
0.420833
0.420833
0.425000
0.458333
0.600000
0.570833
0.662500
0.500000
0.791667
0.475000
0.429167
0.416667
0.475000
0.433333
0.433333
0.470833
0.454167
0.500000
0.616667
0.475000
0.429167
0.420833
0.429167
0.675000
0.533333
0.445833
0.425000
0.416667
0.433333
0.616667
0.462500
0.441667
