0.341667
0.337500
0.341667
0.329167
0.354167
0.329167
0.312500
0.320833
0.354167
0.333333
0.345833
0.337500
0.354167
0.345833
0.379167
0.400000
0.366667
0.337500
0.379167
0.379167
0.366667
0.325000
0.329167
0.325000
0.312500
0.362500
0.354167
0.341667
0.345833
0.341667
0.395833
0.383333
0.341667
0.345833
0.350000
0.329167
0.345833
0.345833
0.370833
0.333333
0.345833
0.366667
0.337500
0.379167
0.375000
0.341667
0.350000
0.375000
0.333333
0.329167
0.333333
0.383333
0.370833
0.354167
0.362500
0.350000
0.325000
0.375000
0.416667
0.350000
0.462500
0.345833
0.333333
0.329167
0.325000
0.316667
0.350000
0.362500
0.325000
0.387500
0.350000
0.337500
0.370833
0.358333
0.362500
0.358333
0.333333
0.312500
0.320833
0.345833
0.358333
0.520833
0.350000
0.312500
0.337500
0.350000
0.350000
0.341667
0.387500
0.341667
0.483333
0.341667
0.320833
0.333333
0.329167
0.341667
0.341667
0.354167
0.337500
0.354167
0.341667
0.400000
0.387500
0.408333
0.341667
0.333333
0.329167
0.337500
0.337500
0.333333
0.333333
0.320833
0.350000
0.362500
0.354167
0.354167
0.333333
0.362500
0.375000
0.341667
0.358333
0.337500
0.337500
0.350000
0.333333
0.341667
0.329167
0.329167
0.341667
0.358333
0.341667
0.358333
0.379167
0.354167
0.587500
0.425000
0.370833
0.341667
0.312500
0.320833
0.387500
0.350000
0.325000
0.345833
0.329167
0.387500
0.387500
0.362500
0.329167
0.329167
0.325000
0.383333
0.341667
0.483333
0.350000
0.320833
0.350000
0.379167
0.329167
0.320833
0.395833
0.362500
0.333333
0.362500
0.358333
0.358333
0.412500
0.370833
0.333333
0.341667
0.379167
0.337500
0.329167
0.320833
0.320833
0.329167
0.350000
0.345833
0.358333
0.375000
0.504167
0.370833
0.358333
0.320833
0.329167
0.350000
0.366667
0.341667
0.429167
0.375000
0.420833
0.345833
0.329167
0.329167
0.325000
0.337500
0.329167
0.350000
0.345833
0.400000
0.354167
0.387500
0.375000
0.375000
0.366667
0.325000
0.333333
0.333333
0.383333
0.362500
0.333333
0.354167
0.350000
0.362500
0.387500
0.370833
0.333333
0.391667
0.437500
0.345833
0.329167
0.379167
0.375000
0.366667
0.366667
0.341667
0.337500
0.333333
0.329167
0.333333
0.350000
0.341667
0.358333
0.320833
0.325000
0.341667
0.350000
0.362500
0.333333
0.350000
0.362500
0.337500
0.337500
0.320833
0.325000
0.487500
0.400000
0.345833
0.379167
0.370833
0.325000
0.375000
0.312500
0.287500
0.345833
0.366667
0.350000
0.341667
0.354167
0.325000
0.391667
0.325000
0.316667
0.295833
0.333333
0.341667
0.420833
0.383333
0.341667
0.362500
0.370833
0.337500
0.375000
0.366667
0.341667
0.370833
0.350000
0.358333
0.429167
0.375000
0.366667
0.333333
0.366667
0.329167
0.387500
0.395833
0.333333
0.350000
0.354167
0.325000
0.379167
0.441667
0.337500
0.329167
0.404167
0.391667
0.358333
0.345833
0.362500
0.350000
0.366667
0.425000
0.370833
0.350000
0.329167
0.329167
0.383333
0.383333
0.416667
0.316667
0.295833
0.337500
0.341667
0.333333
0.304167
0.320833
0.329167
0.325000
0.383333
0.362500
0.333333
0.387500
0.358333
0.400000
0.520833
0.341667
0.358333
0.416667
0.350000
0.333333
0.337500
0.329167
0.350000
0.358333
0.337500
0.391667
0.391667
0.337500
0.341667
0.383333
0.408333
0.341667
0.383333
0.358333
0.337500
0.350000
0.333333
0.308333
0.291667
0.329167
0.366667
0.341667
0.345833
0.333333
0.358333
0.341667
0.366667
0.366667
0.337500
0.416667
0.412500
0.470833
0.362500
0.329167
0.395833
0.370833
0.333333
0.345833
0.358333
0.329167
0.608333
0.395833
0.320833
0.304167
0.325000
0.400000
0.375000
0.329167
0.345833
0.350000
0.358333
0.395833
0.358333
0.358333
0.358333
0.337500
0.312500
0.333333
0.337500
0.333333
0.487500
0.545833
0.400000
0.320833
0.312500
0.404167
0.425000
0.354167
0.329167
0.354167
0.337500
0.329167
0.333333
0.341667
0.350000
0.358333
0.370833
0.375000
0.458333
0.366667
0.329167
0.316667
0.358333
0.350000
0.341667
0.354167
0.362500
0.350000
0.345833
0.325000
0.341667
0.333333
0.362500
0.370833
0.329167
0.337500
0.354167
0.362500
0.408333
0.370833
0.337500
0.354167
0.383333
0.362500
0.345833
0.337500
0.362500
0.354167
0.308333
0.287500
0.383333
0.433333
0.362500
0.333333
0.316667
0.329167
0.375000
0.329167
0.354167
0.375000
0.329167
0.341667
0.312500
0.358333
0.383333
0.429167
0.358333
0.383333
0.375000
0.333333
0.354167
0.379167
0.354167
0.350000
0.291667
0.383333
0.375000
0.325000
0.354167
0.362500
0.329167
0.345833
0.333333
0.416667
0.370833
0.341667
0.404167
0.400000
0.337500
0.354167
0.366667
0.354167
0.316667
0.325000
0.366667
0.341667
0.325000
0.391667
0.379167
0.320833
0.320833
0.341667
0.350000
0.329167
0.320833
0.379167
0.333333
0.416667
0.370833
0.375000
0.362500
0.358333
0.333333
0.370833
0.379167
0.345833
0.379167
0.333333
0.370833
0.379167
0.354167
0.345833
0.333333
0.333333
0.320833
0.329167
0.333333
0.329167
0.370833
0.358333
0.325000
0.337500
0.333333
0.341667
0.408333
0.345833
0.354167
0.420833
0.354167
0.358333
0.562500
0.362500
0.325000
0.304167
0.341667
0.325000
0.345833
0.383333
0.304167
0.337500
0.312500
0.325000
0.358333
0.333333
0.345833
0.337500
0.320833
0.329167
0.350000
0.325000
0.329167
0.316667
0.304167
0.325000
0.333333
0.370833
0.375000
0.333333
0.333333
0.333333
0.333333
0.320833
0.320833
0.312500
0.312500
0.437500
0.437500
0.379167
0.400000
0.341667
0.312500
0.300000
0.337500
0.341667
0.329167
0.345833
0.354167
0.333333
0.370833
0.383333
0.350000
0.333333
0.337500
0.325000
0.329167
0.329167
0.325000
0.333333
0.333333
0.316667
0.350000
0.329167
0.304167
0.329167
0.354167
0.325000
0.350000
0.354167
0.333333
0.379167
0.366667
0.320833
0.354167
0.337500
0.333333
0.350000
0.329167
0.337500
0.345833
0.325000
0.333333
0.358333
0.316667
0.312500
0.370833
0.445833
0.370833
0.320833
0.387500
0.379167
0.358333
0.333333
0.333333
0.320833
0.329167
0.329167
0.337500
0.333333
0.345833
0.354167
0.316667
0.295833
0.316667
0.325000
0.358333
0.366667
0.329167
0.341667
0.379167
0.341667
0.362500
0.391667
0.337500
0.329167
0.325000
0.320833
0.312500
0.329167
0.395833
0.337500
0.366667
0.358333
0.325000
0.362500
0.325000
0.366667
0.395833
0.337500
0.387500
0.429167
0.404167
0.337500
0.354167
0.400000
0.337500
0.358333
0.425000
0.350000
0.312500
0.329167
0.329167
0.383333
0.345833
0.329167
0.362500
0.325000
0.354167
0.375000
0.312500
0.304167
0.362500
0.366667
0.358333
0.320833
0.375000
0.333333
0.320833
0.383333
0.337500
0.329167
0.345833
0.337500
0.354167
0.320833
0.416667
0.333333
0.325000
0.345833
0.333333
0.325000
0.575000
0.387500
0.329167
0.404167
0.395833
0.350000
0.312500
0.333333
0.366667
0.562500
0.433333
0.358333
0.325000
0.325000
0.304167
0.420833
0.420833
0.391667
0.408333
0.366667
0.366667
0.325000
0.329167
0.412500
0.337500
0.304167
0.295833
0.300000
0.316667
0.320833
0.337500
0.383333
0.370833
0.316667
0.312500
0.337500
0.333333
0.345833
0.341667
0.308333
0.320833
0.370833
0.391667
0.391667
0.329167
0.300000
0.325000
0.358333
0.320833
0.429167
0.387500
0.354167
0.345833
0.320833
0.541667
0.354167
0.308333
0.316667
0.370833
0.333333
0.308333
0.308333
0.337500
0.329167
0.316667
0.320833
0.329167
0.308333
0.420833
0.383333
0.395833
0.537500
0.420833
0.320833
0.325000
0.325000
0.308333
0.416667
0.500000
0.370833
0.337500
0.320833
0.333333
0.341667
0.358333
0.333333
0.362500
0.375000
0.329167
0.329167
0.329167
0.333333
0.341667
0.325000
0.312500
0.333333
0.341667
0.320833
0.354167
0.408333
0.366667
1.512500
1.412500
1.345833
1.191667
0.941667
0.900000
0.891667
0.841667
0.808333
0.791667
1.245833
0.879167
0.816667
0.766667
0.812500
1.195833
0.879167
0.837500
0.779167
0.750000
0.779167
0.820833
0.812500
1.225000
0.875000
0.866667
0.833333
0.825000
0.766667
0.745833
0.745833
1.225000
0.766667
0.700000
1.195833
0.770833
0.720833
0.725000
1.191667
0.779167
0.725000
0.725000
1.087500
0.925000
0.941667
0.887500
0.895833
0.891667
0.870833
0.870833
0.862500
0.883333
0.858333
0.866667
0.854167
0.870833
0.845833
0.866667
0.854167
0.854167
0.841667
0.854167
0.841667
0.845833
0.845833
0.829167
0.854167
0.841667
0.837500
0.845833
0.829167
0.850000
0.845833
0.833333
0.858333
0.462500
0.704167
0.891667
1.404167
0.754167
0.679167
0.612500
0.995833
0.754167
0.700000
0.454167
0.370833
0.558333
0.450000
1.212500
0.762500
0.704167
0.712500
0.641667
0.629167
0.633333
0.666667
0.400000
0.370833
0.341667
0.366667
0.341667
0.325000
0.404167
0.350000
0.312500
0.316667
0.316667
0.320833
0.312500
0.329167
0.433333
0.362500
0.329167
0.325000
0.337500
0.345833
0.404167
0.345833
0.350000
0.408333
0.337500
0.320833
0.325000
0.337500
0.341667
0.333333
0.333333
0.312500
0.304167
0.304167
0.333333
0.325000
0.370833
0.325000
0.300000
0.329167
0.337500
0.337500
0.370833
0.550000
0.350000
0.325000
0.362500
0.341667
0.370833
0.354167
0.333333
0.333333
0.316667
0.304167
0.295833
0.279167
0.350000
0.429167
0.341667
0.333333
0.337500
0.345833
0.345833
0.320833
0.300000
0.366667
0.375000
0.337500
0.341667
0.345833
0.383333
0.354167
0.370833
0.350000
0.350000
0.345833
0.354167
0.445833
0.458333
0.433333
0.395833
0.429167
0.337500
0.337500
0.333333
0.341667
0.329167
0.408333
0.462500
0.354167
0.325000
0.412500
0.425000
0.400000
0.337500
0.333333
0.362500
0.337500
0.358333
0.354167
0.320833
0.370833
0.400000
0.341667
0.341667
0.408333
0.366667
0.325000
0.412500
0.395833
0.329167
0.350000
0.391667
0.404167
0.333333
0.379167
0.425000
0.379167
0.329167
0.329167
0.333333
0.337500
0.337500
0.350000
0.395833
0.345833
0.350000
0.404167
0.366667
0.350000
0.404167
0.400000
0.375000
0.345833
0.312500
0.341667
0.341667
0.362500
0.416667
0.445833
0.433333
0.379167
0.387500
0.504167
0.354167
0.329167
0.400000
0.358333
0.408333
0.379167
0.325000
0.391667
0.433333
0.437500
0.370833
0.325000
0.383333
0.433333
0.366667
0.325000
0.362500
0.345833
0.370833
0.383333
0.337500
0.358333
0.383333
0.337500
0.362500
0.337500
0.362500
0.491667
0.366667
0.333333
0.362500
0.308333
0.358333
0.433333
0.412500
0.350000
0.320833
0.325000
0.329167
0.404167
0.358333
0.341667
0.400000
0.429167
0.358333
0.295833
0.283333
0.370833
0.641667
0.400000
0.420833
0.375000
0.325000
0.304167
0.325000
0.387500
0.341667
0.358333
0.441667
0.462500
0.450000
0.412500
0.400000
0.345833
0.350000
0.375000
0.325000
0.362500
0.395833
0.350000
0.337500
0.404167
0.429167
0.362500
0.329167
0.345833
0.379167
0.345833
0.316667
0.312500
0.333333
0.333333
0.354167
0.345833
0.337500
0.370833
0.337500
0.370833
0.354167
0.350000
0.425000
0.466667
0.416667
0.412500
0.345833
0.345833
0.420833
0.375000
0.329167
0.383333
0.395833
0.354167
0.320833
0.366667
0.345833
0.320833
0.387500
0.337500
0.354167
0.416667
0.429167
0.425000
0.420833
0.391667
0.420833
0.325000
0.358333
0.383333
0.350000
0.325000
0.375000
0.362500
0.337500
0.400000
0.404167
0.354167
0.329167
0.391667
0.412500
0.379167
0.329167
0.366667
0.362500
0.325000
0.337500
0.325000
0.370833
0.429167
0.425000
0.370833
0.320833
0.366667
0.408333
0.354167
0.320833
0.345833
0.337500
0.345833
0.408333
0.354167
0.341667
0.408333
0.395833
0.337500
0.333333
0.408333
0.375000
0.333333
0.370833
0.420833
0.391667
0.345833
0.391667
0.400000
0.370833
0.341667
0.337500
0.383333
0.345833
0.333333
0.370833
0.341667
0.412500
0.420833
0.433333
0.437500
0.412500
0.354167
0.341667
0.395833
0.416667
0.358333
0.325000
0.354167
0.345833
0.337500
0.408333
0.420833
0.341667
0.337500
0.412500
0.420833
0.412500
0.350000
0.320833
0.333333
0.325000
0.320833
0.320833
0.391667
0.437500
0.429167
0.383333
0.341667
0.333333
0.295833
0.312500
0.341667
0.400000
0.366667
0.341667
0.325000
0.325000
0.387500
0.429167
0.362500
0.341667
0.383333
0.337500
0.333333
0.400000
0.345833
0.341667
0.350000
0.329167
0.358333
0.337500
0.345833
0.366667
0.337500
0.412500
0.429167
0.391667
0.333333
0.391667
0.379167
0.358333
0.320833
0.412500
0.450000
0.408333
0.366667
0.333333
0.400000
0.395833
0.345833
0.337500
0.370833
0.333333
0.366667
0.429167
0.433333
0.391667
0.341667
0.329167
0.395833
0.404167
0.345833
0.337500
0.425000
0.362500
0.333333
0.345833
0.391667
0.354167
0.329167
0.362500
0.337500
0.345833
0.333333
0.345833
0.429167
0.375000
0.329167
0.391667
0.329167
0.316667
0.375000
0.325000
0.358333
0.387500
0.450000
0.375000
0.375000
0.379167
0.383333
0.337500
0.362500
0.420833
0.420833
0.362500
0.329167
0.358333
0.350000
0.500000
0.354167
0.341667
0.412500
0.370833
0.329167
0.383333
0.425000
0.354167
0.333333
0.362500
0.337500
0.329167
0.379167
0.337500
0.325000
0.333333
0.354167
0.425000
0.366667
0.329167
0.383333
0.395833
0.337500
0.345833
0.412500
0.441667
0.375000
0.329167
0.366667
0.420833
0.358333
0.337500
0.350000
0.404167
0.400000
0.308333
0.379167
0.387500
0.333333
0.325000
0.337500
0.329167
0.312500
0.312500
0.370833
0.329167
0.345833
0.341667
0.325000
0.333333
0.333333
0.329167
0.333333
0.358333
0.441667
0.437500
0.475000
0.354167
0.337500
0.333333
0.291667
0.283333
0.320833
0.337500
0.329167
0.658333
0.387500
0.341667
0.341667
0.345833
0.333333
0.366667
0.345833
0.404167
0.420833
0.345833
0.291667
0.312500
0.325000
0.320833
0.329167
0.312500
0.354167
0.404167
0.370833
0.350000
0.433333
0.337500
0.333333
0.483333
0.350000
0.337500
0.558333
0.408333
0.404167
0.345833
0.337500
0.366667
0.354167
0.412500
0.370833
0.375000
0.341667
0.391667
0.345833
0.312500
0.308333
0.329167
0.333333
0.400000
0.329167
0.316667
0.341667
0.529167
0.412500
0.341667
0.395833
0.345833
0.366667
0.350000
0.412500
0.329167
0.304167
0.308333
0.325000
0.325000
0.354167
0.333333
0.337500
0.325000
0.329167
0.337500
0.354167
0.387500
0.429167
0.345833
0.325000
0.370833
0.345833
0.379167
0.387500
0.350000
0.362500
0.412500
0.370833
0.325000
0.345833
0.308333
0.412500
0.408333
0.333333
0.354167
0.433333
0.379167
0.333333
0.366667
0.400000
0.345833
0.316667
0.333333
0.320833
0.525000
0.470833
0.379167
0.325000
0.337500
0.337500
0.345833
0.425000
0.350000
0.325000
0.337500
0.312500
0.395833
0.429167
0.370833
0.333333
0.533333
0.370833
0.329167
0.345833
0.333333
0.337500
0.320833
0.350000
0.416667
0.341667
0.341667
0.337500
0.325000
0.337500
0.320833
0.291667
0.295833
0.312500
0.337500
0.350000
0.404167
0.408333
0.354167
0.333333
0.358333
0.358333
0.316667
0.337500
0.325000
0.341667
0.329167
0.337500
0.354167
0.316667
0.312500
0.362500
0.404167
0.341667
0.329167
0.358333
0.362500
0.516667
0.366667
0.350000
0.329167
0.333333
0.350000
0.408333
0.358333
0.516667
0.362500
0.358333
0.337500
0.341667
0.350000
0.325000
0.400000
1.679167
0.958333
1.329167
1.491667
1.379167
0.787500
1.300000
0.900000
0.812500
0.750000
