1.341667
1.108333
1.066667
1.045833
1.012500
1.016667
1.029167
0.979167
1.025000
1.045833
1.041667
1.054167
1.091667
1.020833
1.100000
1.091667
1.041667
1.095833
1.041667
0.979167
1.050000
1.137500
1.075000
1.066667
1.075000
1.087500
1.041667
1.079167
1.045833
1.012500
1.083333
1.050000
1.012500
1.054167
1.058333
1.008333
1.037500
0.958333
0.812500
0.725000
0.695833
0.679167
0.654167
0.670833
0.662500
0.650000
0.658333
0.654167
0.658333
0.654167
0.654167
0.645833
0.645833
0.633333
0.645833
0.654167
0.641667
0.625000
0.620833
0.612500
0.625000
0.612500
0.604167
0.612500
0.604167
0.612500
0.616667
0.608333
0.604167
0.608333
0.612500
0.600000
0.595833
0.591667
0.591667
0.587500
0.583333
0.591667
0.587500
0.570833
0.579167
0.575000
0.570833
0.583333
0.583333
0.575000
0.579167
0.579167
0.579167
0.595833
0.587500
0.579167
0.591667
0.583333
0.587500
0.591667
0.595833
0.595833
0.595833
0.600000
0.612500
0.616667
0.616667
0.616667
0.620833
0.620833
0.625000
0.620833
0.629167
0.620833
0.616667
0.616667
0.616667
0.612500
0.604167
0.600000
0.595833
0.591667
0.591667
0.579167
0.591667
0.587500
0.570833
0.579167
0.570833
0.570833
0.587500
0.575000
0.570833
0.570833
0.570833
0.558333
0.566667
0.575000
0.575000
0.562500
0.562500
0.558333
0.558333
0.575000
0.558333
0.558333
0.554167
0.554167
0.554167
0.554167
0.554167
0.554167
0.554167
0.537500
0.558333
0.550000
0.550000
0.545833
0.545833
0.541667
0.550000
0.537500
0.537500
0.545833
0.537500
0.541667
0.533333
0.537500
0.537500
0.545833
0.541667
0.545833
0.541667
0.545833
0.533333
0.550000
0.541667
0.537500
0.529167
0.541667
0.533333
0.537500
0.529167
0.533333
0.529167
0.525000
0.508333
0.550000
0.520833
0.520833
0.525000
0.525000
0.520833
0.516667
0.520833
0.529167
0.516667
0.520833
0.512500
0.533333
0.520833
0.520833
0.508333
0.520833
0.520833
0.525000
0.520833
0.508333
0.520833
0.529167
0.516667
0.529167
0.520833
0.520833
0.512500
0.520833
0.520833
0.520833
0.512500
0.516667
0.516667
0.508333
0.516667
0.516667
0.512500
0.508333
0.504167
0.512500
0.504167
0.512500
0.508333
0.508333
0.491667
0.508333
0.508333
0.512500
0.508333
0.512500
0.504167
0.520833
0.508333
0.512500
0.512500
0.508333
0.520833
0.516667
0.512500
0.516667
0.508333
1.033333
0.516667
0.512500
0.516667
0.504167
0.525000
0.512500
0.516667
0.512500
0.500000
0.512500
0.508333
0.512500
0.512500
0.512500
0.512500
0.500000
0.508333
0.508333
0.512500
0.512500
0.500000
0.512500
0.508333
0.512500
0.508333
0.500000
0.504167
0.512500
0.504167
0.504167
0.508333
0.487500
0.500000
0.504167
0.512500
0.495833
0.504167
0.491667
0.508333
0.495833
0.508333
0.500000
0.491667
0.504167
0.504167
0.500000
0.500000
0.483333
0.500000
0.500000
0.504167
0.500000
0.500000
0.495833
0.504167
0.508333
0.504167
0.500000
0.491667
0.508333
0.508333
0.504167
0.504167
0.487500
0.516667
0.495833
0.504167
0.500000
0.491667
0.504167
0.504167
0.504167
0.495833
0.500000
0.504167
0.500000
0.500000
0.500000
0.487500
0.504167
0.504167
0.500000
0.504167
0.491667
0.508333
0.508333
0.504167
0.504167
0.495833
0.512500
0.508333
0.504167
0.504167
0.500000
0.508333
0.500000
0.508333
0.500000
0.504167
0.500000
0.504167
0.508333
0.508333
0.504167
0.508333
0.508333
0.512500
0.512500
0.508333
0.512500
0.504167
0.525000
0.520833
0.512500
0.512500
0.512500
0.508333
0.508333
0.495833
0.520833
0.500000
0.508333
0.504167
0.508333
0.495833
0.516667
0.508333
0.504167
0.508333
0.504167
0.500000
0.508333
0.512500
0.508333
0.512500
0.508333
0.504167
0.520833
0.512500
0.512500
0.516667
0.504167
0.520833
0.512500
0.516667
0.512500
0.508333
0.520833
0.516667
0.520833
0.516667
0.516667
0.520833
0.516667
0.520833
0.516667
0.520833
0.512500
0.508333
0.508333
0.500000
0.500000
0.495833
0.495833
0.487500
0.495833
0.491667
0.483333
0.479167
0.479167
0.479167
0.487500
0.483333
0.487500
0.479167
0.483333
0.429167
0.333333
0.312500
0.854167
0.537500
0.533333
0.525000
0.520833
0.504167
0.508333
0.508333
0.500000
0.495833
0.508333
0.495833
0.508333
0.500000
0.504167
0.508333
0.508333
0.512500
0.504167
0.520833
0.512500
0.520833
0.508333
0.516667
0.525000
0.525000
0.520833
0.516667
0.529167
0.529167
0.525000
0.525000
0.533333
0.529167
0.529167
0.520833
0.533333
0.545833
0.533333
0.529167
0.533333
0.537500
0.537500
0.537500
0.533333
0.541667
0.537500
0.545833
0.541667
0.541667
0.541667
0.537500
0.554167
0.545833
0.545833
0.554167
0.529167
0.558333
0.541667
0.545833
0.537500
0.537500
0.550000
0.533333
0.541667
0.537500
0.541667
0.537500
0.537500
0.537500
0.537500
0.537500
0.533333
0.545833
0.533333
0.541667
0.533333
0.545833
0.533333
0.545833
0.533333
0.550000
0.537500
0.541667
0.537500
0.558333
0.545833
0.550000
0.545833
0.554167
0.554167
0.550000
0.550000
0.550000
0.550000
0.558333
0.554167
0.558333
0.554167
0.558333
0.554167
0.562500
0.558333
0.558333
0.562500
0.558333
0.570833
0.554167
0.558333
0.558333
0.545833
0.566667
0.545833
0.550000
0.545833
0.545833
0.558333
0.545833
0.545833
0.550000
0.537500
0.545833
0.545833
0.541667
0.545833
0.537500
0.533333
0.537500
0.533333
0.525000
0.533333
0.529167
0.533333
0.529167
0.537500
0.529167
0.525000
0.533333
0.533333
0.533333
0.529167
0.520833
0.529167
0.529167
0.525000
0.525000
0.520833
0.516667
0.525000
0.525000
0.525000
0.516667
0.529167
0.520833
0.529167
0.525000
0.533333
0.525000
0.516667
0.533333
0.533333
0.525000
0.525000
0.520833
0.520833
0.520833
0.520833
0.520833
0.520833
0.512500
0.525000
0.516667
0.516667
0.520833
0.516667
0.512500
0.520833
0.516667
0.516667
0.520833
0.504167
0.525000
0.516667
0.512500
0.512500
0.504167
0.525000
0.525000
0.516667
0.516667
0.508333
0.512500
0.516667
0.520833
0.512500
0.516667
0.508333
0.525000
0.516667
0.520833
0.512500
0.512500
0.525000
0.516667
0.516667
0.516667
0.504167
0.520833
0.512500
0.512500
0.512500
0.500000
0.525000
0.504167
0.512500
0.508333
0.500000
0.516667
0.512500
0.504167
0.508333
0.500000
0.508333
0.508333
0.508333
0.504167
0.508333
0.508333
0.512500
0.508333
0.512500
0.508333
0.504167
0.520833
0.504167
0.516667
0.512500
0.504167
0.516667
0.516667
0.520833
0.516667
0.520833
0.516667
0.520833
0.525000
0.520833
0.520833
0.516667
0.520833
0.525000
0.516667
0.525000
0.529167
0.520833
0.529167
0.529167
0.529167
0.529167
0.525000
0.533333
0.525000
0.533333
0.520833
0.520833
0.525000
0.520833
0.520833
0.512500
0.508333
0.525000
0.516667
0.516667
0.516667
0.504167
0.516667
0.512500
0.512500
0.512500
0.504167
0.512500
0.508333
0.508333
0.512500
0.504167
0.500000
0.516667
0.508333
0.508333
0.504167
0.500000
0.504167
0.504167
0.504167
0.500000
0.504167
0.495833
0.504167
0.504167
0.504167
0.500000
0.504167
0.491667
0.508333
0.500000
0.508333
0.500000
0.491667
0.516667
0.500000
0.504167
0.504167
0.500000
0.504167
0.504167
0.504167
0.508333
0.495833
0.508333
0.508333
0.500000
0.504167
0.495833
0.512500
0.500000
0.508333
0.504167
0.495833
0.504167
0.504167
0.508333
0.500000
0.500000
0.500000
0.504167
0.500000
0.504167
0.500000
0.500000
0.504167
0.495833
0.508333
0.500000
0.491667
0.512500
0.495833
0.504167
0.504167
0.491667
0.504167
0.504167
0.491667
0.495833
0.500000
0.504167
0.495833
0.504167
0.491667
0.500000
0.504167
0.504167
0.500000
0.504167
0.504167
0.491667
0.500000
0.500000
0.500000
0.495833
0.500000
0.495833
0.491667
0.487500
0.504167
0.495833
0.491667
0.495833
0.491667
0.487500
0.504167
0.491667
0.500000
0.495833
0.483333
0.500000
0.500000
0.487500
0.500000
0.491667
0.500000
0.491667
0.495833
0.487500
0.487500
0.500000
0.491667
0.487500
0.495833
0.483333
0.491667
0.495833
0.495833
0.491667
0.487500
0.491667
0.491667
0.495833
0.495833
0.479167
0.500000
0.495833
0.491667
0.504167
0.491667
0.500000
0.495833
0.504167
0.495833
0.504167
0.504167
0.500000
0.500000
0.504167
0.495833
0.508333
0.504167
0.566667
0.425000
0.504167
0.500000
0.500000
0.495833
0.495833
0.500000
0.495833
0.500000
0.491667
0.504167
0.500000
0.495833
0.495833
0.995833
0.495833
0.500000
0.495833
0.487500
0.495833
0.504167
0.495833
0.500000
0.491667
0.495833
0.500000
0.495833
0.495833
0.500000
0.491667
0.500000
0.504167
0.495833
0.495833
0.495833
0.491667
0.504167
0.504167
0.500000
0.500000
0.495833
0.495833
0.504167
0.500000
0.504167
0.500000
1.004167
0.504167
0.504167
0.504167
0.495833
0.508333
0.504167
0.500000
0.504167
0.508333
0.487500
0.516667
0.508333
0.504167
0.508333
0.500000
0.508333
0.504167
0.508333
0.504167
0.504167
0.500000
0.508333
0.508333
0.508333
0.504167
0.495833
0.500000
0.504167
0.504167
0.500000
0.504167
0.487500
0.508333
0.500000
0.500000
0.500000
0.500000
0.491667
0.504167
0.495833
0.500000
0.500000
0.491667
0.491667
0.500000
0.495833
0.500000
0.495833
0.487500
0.500000
0.491667
0.500000
0.491667
0.500000
0.479167
0.500000
0.487500
0.491667
0.495833
0.491667
0.487500
0.491667
0.491667
0.487500
0.479167
0.500000
0.483333
0.495833
0.491667
0.491667
0.495833
0.483333
0.491667
0.495833
0.491667
0.495833
0.491667
0.495833
0.479167
0.491667
0.437500
0.441667
0.554167
0.495833
0.512500
0.495833
0.500000
0.491667
0.504167
0.495833
0.500000
0.491667
0.495833
0.487500
0.487500
0.495833
0.491667
0.487500
0.487500
0.491667
0.495833
0.487500
0.483333
0.500000
0.487500
0.495833
0.487500
0.500000
0.491667
0.495833
0.487500
0.504167
0.487500
0.500000
0.495833
0.487500
0.500000
0.491667
0.495833
0.491667
0.487500
0.504167
0.491667
0.500000
0.491667
0.487500
0.495833
0.491667
0.495833
0.491667
0.487500
0.500000
0.491667
0.495833
0.491667
0.491667
0.500000
0.495833
0.495833
0.495833
0.491667
0.500000
0.500000
0.495833
0.500000
0.487500
0.508333
0.495833
0.500000
0.504167
0.495833
0.495833
0.504167
0.504167
0.500000
0.500000
0.495833
0.504167
0.504167
0.504167
0.500000
0.491667
0.512500
0.500000
0.504167
0.504167
0.487500
0.512500
0.500000
0.504167
0.495833
0.500000
0.500000
0.504167
0.491667
0.508333
0.500000
0.495833
0.504167
0.504167
0.504167
0.500000
0.500000
0.504167
0.500000
0.504167
0.500000
0.495833
0.495833
0.500000
0.495833
0.491667
0.504167
0.491667
0.495833
0.495833
0.500000
0.487500
0.487500
0.491667
0.491667
0.491667
0.491667
0.487500
0.483333
0.495833
0.487500
0.491667
0.487500
0.483333
0.495833
0.491667
0.495833
0.487500
0.487500
0.491667
0.495833
0.491667
0.487500
0.487500
0.491667
0.487500
0.487500
0.491667
0.500000
0.475000
0.495833
0.491667
0.495833
0.487500
0.483333
0.491667
0.491667
0.487500
0.491667
0.491667
0.479167
0.495833
0.491667
0.491667
0.495833
0.483333
0.491667
0.495833
0.487500
0.491667
0.495833
0.483333
0.495833
0.495833
0.491667
0.487500
0.491667
0.491667
0.491667
0.487500
0.491667
0.491667
0.487500
0.495833
0.487500
0.487500
