0.491667
0.495833
0.487500
0.491667
0.487500
0.491667
0.495833
0.491667
0.495833
0.483333
0.504167
0.491667
0.491667
0.491667
0.491667
0.491667
0.225000
0.270833
0.487500
0.495833
0.483333
0.495833
0.487500
0.491667
0.487500
0.479167
0.495833
0.487500
0.487500
0.491667
0.483333
0.491667
0.487500
0.491667
0.487500
0.483333
0.487500
0.491667
0.487500
0.491667
0.487500
0.483333
0.495833
0.487500
0.491667
0.491667
0.483333
0.483333
0.487500
0.487500
0.483333
0.483333
0.483333
0.487500
0.483333
0.491667
0.487500
0.475000
0.495833
0.483333
0.495833
0.483333
0.495833
0.483333
0.479167
0.487500
0.491667
0.491667
0.491667
0.483333
0.487500
0.958333
0.491667
0.483333
0.487500
0.487500
0.475000
0.491667
0.487500
0.483333
0.487500
0.487500
0.479167
0.479167
0.483333
0.487500
0.483333
0.479167
0.487500
0.487500
0.479167
0.483333
0.479167
0.479167
0.483333
0.483333
0.487500
0.479167
0.479167
0.487500
0.491667
0.483333
0.487500
0.483333
0.487500
0.487500
0.487500
0.962500
0.487500
0.487500
0.483333
0.487500
0.475000
0.491667
0.487500
0.487500
0.487500
0.475000
0.491667
0.479167
0.487500
0.491667
0.479167
0.483333
0.483333
0.491667
0.479167
0.487500
0.470833
0.483333
0.483333
0.483333
0.487500
0.479167
0.470833
0.487500
0.479167
0.479167
0.483333
0.483333
0.466667
0.483333
0.479167
0.487500
0.479167
0.479167
0.479167
0.475000
0.491667
0.479167
0.479167
0.479167
0.479167
0.470833
0.479167
0.475000
0.483333
0.479167
0.483333
0.475000
0.479167
0.479167
0.483333
0.487500
0.483333
0.958333
0.491667
0.479167
0.975000
0.475000
0.483333
0.483333
0.475000
0.491667
0.487500
0.479167
0.487500
0.475000
0.491667
0.483333
0.487500
0.487500
0.479167
0.475000
0.487500
0.479167
0.487500
0.487500
0.487500
0.470833
0.491667
0.479167
0.483333
0.483333
0.479167
0.475000
0.483333
0.479167
0.479167
0.487500
0.479167
0.475000
0.475000
0.479167
0.483333
0.483333
0.475000
0.475000
0.479167
0.479167
0.479167
0.483333
0.475000
0.483333
0.462500
0.487500
0.475000
0.483333
0.475000
0.479167
0.466667
0.483333
0.475000
0.483333
0.475000
0.479167
0.458333
0.483333
0.483333
0.475000
0.479167
0.483333
0.475000
0.970833
0.479167
0.487500
0.483333
0.470833
0.495833
0.479167
0.487500
0.475000
0.487500
0.487500
0.483333
0.487500
0.487500
0.479167
0.950000
0.479167
0.483333
0.479167
0.479167
0.479167
0.470833
0.483333
0.479167
0.479167
0.479167
0.475000
0.470833
0.475000
0.475000
0.479167
0.475000
0.475000
0.479167
0.470833
0.470833
0.487500
0.475000
0.479167
0.475000
0.475000
0.462500
0.487500
0.475000
0.483333
0.475000
0.475000
0.475000
0.479167
0.479167
0.487500
0.483333
0.479167
0.475000
0.487500
0.483333
0.487500
0.487500
0.483333
0.475000
0.487500
0.487500
0.487500
0.483333
0.487500
0.466667
0.487500
0.483333
0.491667
0.479167
0.954167
0.487500
0.479167
0.483333
0.483333
0.479167
0.462500
0.491667
0.475000
0.479167
0.475000
0.475000
0.462500
0.475000
0.470833
0.475000
0.470833
0.470833
0.475000
0.462500
0.466667
0.475000
0.470833
0.475000
0.475000
0.466667
0.470833
0.475000
0.479167
0.479167
0.475000
0.479167
0.475000
0.475000
0.483333
0.479167
0.483333
0.479167
0.475000
0.475000
0.483333
0.475000
0.479167
0.479167
0.475000
0.483333
0.479167
0.475000
0.483333
0.412500
0.537500
0.475000
0.487500
0.479167
0.487500
0.483333
0.483333
0.479167
0.487500
0.483333
0.487500
0.483333
0.470833
0.483333
0.483333
0.483333
0.483333
0.483333
0.483333
0.470833
0.479167
0.404167
0.541667
0.479167
0.487500
0.491667
0.479167
0.491667
0.487500
0.479167
0.491667
0.483333
0.475000
0.491667
0.487500
0.487500
0.962500
0.491667
0.487500
0.475000
0.487500
0.479167
0.483333
0.475000
0.479167
0.479167
0.479167
0.479167
0.470833
0.479167
0.483333
0.475000
0.466667
0.487500
0.479167
0.479167
0.470833
0.487500
0.483333
0.487500
0.479167
0.483333
0.483333
0.487500
0.479167
0.475000
0.491667
0.483333
0.487500
0.483333
0.479167
0.479167
0.483333
0.487500
0.475000
0.475000
0.479167
0.479167
0.483333
0.475000
0.470833
0.483333
0.479167
0.479167
0.479167
0.479167
0.470833
0.479167
0.483333
0.483333
0.475000
0.475000
0.483333
0.479167
0.479167
0.479167
0.483333
0.466667
0.475000
0.487500
0.479167
0.475000
0.475000
0.466667
0.470833
0.479167
0.470833
0.475000
0.475000
0.945833
0.475000
0.475000
0.479167
0.475000
0.466667
0.487500
0.479167
0.479167
0.479167
0.475000
0.487500
0.479167
0.479167
0.483333
0.479167
0.479167
0.479167
0.487500
0.479167
0.479167
0.479167
0.487500
0.479167
0.483333
0.479167
0.479167
0.483333
0.483333
0.483333
0.483333
0.475000
0.491667
0.479167
0.483333
0.479167
0.475000
0.487500
0.479167
0.475000
0.479167
0.487500
0.470833
0.483333
0.479167
0.475000
0.475000
0.950000
0.470833
0.479167
0.475000
0.479167
0.462500
0.483333
0.475000
0.479167
0.475000
0.475000
0.462500
0.483333
0.462500
0.479167
0.470833
0.475000
0.466667
0.470833
0.475000
0.470833
0.470833
0.470833
0.462500
0.475000
0.466667
0.470833
0.475000
0.454167
0.470833
0.470833
0.466667
0.470833
0.470833
0.458333
0.470833
0.479167
0.466667
0.462500
0.470833
0.470833
0.475000
0.466667
0.470833
0.466667
0.462500
0.475000
0.466667
0.475000
0.470833
0.462500
0.470833
0.475000
0.466667
0.466667
0.462500
0.475000
0.466667
0.470833
0.462500
0.462500
0.466667
0.466667
0.466667
0.470833
0.470833
0.475000
0.470833
0.933333
0.466667
0.475000
0.470833
0.470833
0.466667
0.475000
0.466667
0.475000
0.466667
0.458333
0.483333
0.466667
0.470833
0.470833
0.462500
0.458333
0.475000
0.462500
0.462500
0.466667
0.450000
0.470833
0.458333
0.462500
0.458333
0.462500
0.445833
0.462500
0.462500
0.462500
0.462500
0.454167
0.462500
0.462500
0.462500
0.466667
0.462500
0.462500
0.462500
0.458333
0.458333
0.458333
0.454167
0.458333
0.454167
0.454167
0.445833
0.462500
0.454167
0.462500
0.458333
0.454167
0.466667
0.466667
0.470833
0.466667
0.487500
0.470833
0.466667
0.483333
0.479167
0.483333
0.491667
0.479167
0.475000
0.487500
0.487500
0.487500
0.483333
0.483333
0.483333
0.479167
0.491667
0.479167
0.479167
0.491667
0.483333
0.479167
0.483333
0.479167
0.479167
0.475000
0.479167
0.483333
0.479167
0.466667
0.487500
0.475000
0.479167
0.475000
0.470833
0.487500
0.475000
0.479167
0.479167
0.479167
0.466667
0.491667
0.483333
0.479167
0.475000
0.470833
0.479167
0.475000
0.479167
0.479167
0.479167
0.475000
0.475000
0.487500
0.470833
0.483333
0.479167
0.466667
0.470833
0.483333
0.483333
0.479167
0.483333
0.475000
0.495833
0.483333
0.491667
0.483333
0.479167
0.495833
0.487500
0.491667
0.483333
0.483333
0.487500
0.491667
0.487500
0.487500
0.491667
0.479167
0.483333
0.491667
0.491667
0.487500
0.483333
0.487500
0.475000
0.491667
0.483333
0.487500
0.479167
0.470833
0.483333
0.483333
0.479167
0.487500
0.479167
0.475000
0.475000
0.487500
0.475000
0.483333
0.483333
0.479167
0.475000
0.491667
0.479167
0.483333
0.483333
0.470833
0.483333
0.483333
0.483333
0.487500
0.479167
0.475000
0.491667
0.479167
0.487500
0.483333
0.470833
0.479167
0.483333
0.487500
0.483333
0.483333
0.462500
0.487500
0.483333
0.483333
0.483333
0.470833
0.479167
0.483333
0.483333
0.483333
0.479167
0.475000
0.491667
0.483333
0.491667
0.487500
0.483333
0.479167
0.495833
0.495833
0.495833
0.487500
0.491667
0.495833
0.495833
0.491667
0.495833
0.975000
0.487500
0.495833
0.491667
0.483333
0.483333
0.495833
0.487500
0.495833
0.483333
0.491667
0.491667
0.491667
0.491667
0.479167
0.495833
0.487500
0.495833
0.491667
0.470833
0.500000
0.487500
0.487500
0.483333
0.475000
0.487500
0.483333
0.487500
0.483333
0.479167
0.491667
0.487500
0.487500
0.479167
0.495833
0.491667
0.495833
0.487500
0.495833
0.495833
0.500000
0.491667
0.495833
0.495833
0.495833
0.491667
0.495833
0.495833
0.491667
0.495833
0.491667
0.491667
0.504167
0.504167
0.495833
0.500000
0.495833
0.500000
0.508333
0.504167
0.504167
0.504167
0.491667
0.512500
0.495833
0.504167
0.504167
0.504167
0.500000
0.487500
0.508333
0.495833
0.504167
0.500000
0.495833
0.500000
0.500000
0.495833
0.500000
0.483333
0.500000
0.495833
0.500000
0.495833
0.487500
0.504167
0.495833
0.495833
0.487500
0.491667
0.495833
0.491667
0.495833
0.483333
0.495833
0.504167
0.491667
0.483333
0.504167
0.495833
0.500000
0.483333
0.508333
0.495833
0.495833
0.487500
0.504167
0.495833
0.491667
0.487500
0.500000
0.495833
0.495833
0.500000
0.487500
0.504167
0.495833
0.500000
0.491667
0.500000
0.495833
0.500000
0.500000
0.487500
0.504167
0.500000
0.500000
0.491667
0.495833
0.500000
0.500000
0.500000
0.487500
0.508333
0.495833
0.504167
0.495833
0.495833
0.500000
0.504167
0.500000
0.495833
0.495833
0.504167
0.500000
0.500000
0.500000
0.504167
0.491667
0.500000
0.400000
0.641667
0.525000
0.520833
0.520833
0.516667
0.512500
0.508333
0.504167
0.508333
0.500000
0.508333
0.500000
0.495833
0.504167
0.495833
0.504167
0.500000
0.495833
0.512500
0.504167
0.516667
0.508333
0.520833
0.525000
0.537500
0.533333
0.529167
0.525000
0.529167
0.529167
0.520833
0.520833
0.512500
0.529167
0.516667
0.512500
0.504167
0.516667
0.508333
0.512500
0.500000
0.512500
0.512500
0.508333
0.504167
0.512500
0.512500
0.512500
0.508333
0.512500
0.516667
0.512500
0.512500
0.516667
0.520833
0.516667
0.512500
0.516667
0.520833
0.516667
0.512500
0.516667
0.520833
0.508333
0.508333
0.512500
0.508333
0.516667
0.500000
0.516667
0.512500
0.516667
0.500000
0.525000
0.508333
0.512500
0.500000
0.508333
0.508333
0.512500
0.504167
0.500000
0.516667
0.504167
0.500000
0.504167
0.504167
0.500000
0.504167
0.500000
0.487500
0.500000
0.500000
0.500000
0.495833
0.500000
0.508333
0.504167
0.504167
0.495833
0.516667
0.504167
0.508333
0.495833
0.520833
0.504167
0.508333
0.500000
0.516667
0.508333
0.508333
0.504167
0.512500
0.508333
0.500000
0.508333
0.508333
0.504167
0.504167
0.500000
0.504167
0.504167
0.504167
0.487500
0.508333
0.500000
0.500000
0.487500
0.504167
0.500000
0.500000
0.491667
0.495833
0.508333
0.495833
0.504167
0.491667
0.508333
0.504167
0.504167
0.504167
0.508333
0.500000
0.508333
0.504167
0.495833
0.508333
0.504167
0.500000
0.495833
0.516667
0.500000
0.508333
0.495833
0.504167
0.500000
0.504167
0.491667
0.504167
0.500000
0.508333
0.495833
0.504167
0.504167
0.508333
0.504167
0.500000
0.504167
0.504167
0.504167
0.504167
0.508333
0.504167
0.508333
0.495833
0.512500
0.504167
0.504167
0.491667
0.512500
0.504167
0.504167
0.491667
0.508333
0.508333
0.504167
0.495833
0.508333
0.500000
0.508333
0.500000
0.504167
0.504167
0.508333
0.504167
0.504167
0.504167
0.508333
0.504167
0.491667
0.512500
0.504167
0.500000
0.483333
0.512500
0.495833
0.500000
0.491667
0.500000
0.495833
0.495833
0.500000
0.487500
0.500000
0.500000
0.500000
0.479167
0.504167
0.495833
0.495833
0.491667
0.487500
0.495833
0.491667
0.487500
0.487500
0.495833
0.491667
0.495833
0.483333
0.500000
0.495833
0.495833
0.483333
0.500000
0.495833
0.495833
0.487500
0.495833
0.495833
0.500000
0.495833
0.483333
0.500000
0.500000
0.495833
0.483333
0.495833
0.495833
0.491667
0.491667
0.479167
0.500000
0.491667
0.491667
0.491667
0.487500
0.491667
0.495833
0.487500
0.487500
0.504167
0.491667
0.495833
0.487500
0.491667
0.495833
0.491667
0.491667
0.479167
0.504167
0.491667
0.495833
0.475000
0.495833
0.495833
0.491667
0.487500
0.491667
0.495833
0.500000
0.495833
0.483333
0.508333
0.495833
0.500000
0.495833
0.487500
0.504167
0.495833
0.500000
0.487500
0.504167
0.495833
0.491667
0.500000
0.483333
0.508333
0.491667
0.495833
0.479167
0.504167
0.495833
0.495833
0.487500
0.508333
0.500000
0.504167
0.495833
0.508333
0.500000
0.504167
0.504167
0.495833
0.504167
0.500000
0.504167
0.491667
0.500000
0.504167
0.500000
0.504167
0.491667
0.504167
0.500000
0.500000
0.483333
0.508333
0.495833
0.500000
0.495833
0.487500
