0.541667
0.733333
0.891667
0.112500
0.420833
0.545833
0.537500
0.541667
0.537500
0.541667
0.541667
0.541667
0.537500
0.541667
0.537500
0.545833
0.537500
0.541667
0.541667
0.541667
0.545833
0.545833
0.541667
0.541667
0.545833
0.550000
0.545833
0.541667
0.545833
0.545833
0.545833
0.550000
0.537500
0.545833
0.541667
0.550000
0.541667
0.283333
0.254167
0.541667
0.545833
0.550000
0.537500
0.541667
0.537500
0.545833
0.541667
0.541667
0.537500
0.541667
0.537500
0.541667
0.541667
0.537500
0.537500
0.537500
0.541667
0.541667
0.541667
0.537500
0.541667
0.545833
0.541667
0.537500
0.541667
0.537500
0.541667
0.545833
0.541667
0.537500
0.541667
0.537500
0.550000
0.683333
0.391667
0.537500
0.545833
0.325000
0.216667
0.537500
0.541667
0.541667
0.537500
0.545833
0.541667
0.537500
0.537500
0.541667
0.541667
0.545833
0.291667
0.254167
0.541667
0.537500
0.541667
0.541667
0.541667
0.541667
0.541667
0.220833
0.862500
0.537500
0.541667
0.541667
0.541667
0.545833
0.541667
0.537500
0.541667
0.541667
0.545833
0.541667
0.541667
0.537500
0.545833
0.541667
0.541667
0.541667
0.537500
0.550000
0.541667
0.541667
0.541667
0.541667
0.545833
0.541667
0.537500
0.541667
0.541667
0.541667
0.541667
0.541667
0.537500
0.541667
0.537500
0.545833
0.541667
0.537500
0.541667
0.537500
0.537500
0.541667
0.537500
0.537500
0.541667
0.537500
0.541667
0.204167
0.333333
0.612500
0.466667
0.537500
0.545833
0.537500
0.537500
0.541667
0.537500
0.541667
0.545833
0.541667
0.537500
0.537500
0.545833
0.541667
0.537500
0.541667
0.537500
0.537500
0.283333
0.262500
0.533333
0.537500
0.308333
0.229167
0.537500
0.545833
0.533333
0.537500
0.533333
0.537500
0.541667
0.537500
0.537500
0.537500
0.537500
0.541667
0.541667
0.537500
0.541667
0.537500
0.195833
0.345833
0.541667
0.537500
0.420833
0.654167
0.537500
0.541667
0.537500
0.537500
0.537500
0.533333
0.541667
0.541667
0.537500
0.537500
0.541667
0.537500
0.545833
0.537500
0.541667
0.537500
0.545833
0.537500
0.541667
0.537500
0.537500
0.545833
0.537500
0.562500
0.525000
0.691667
0.504167
0.420833
0.541667
0.337500
0.454167
0.491667
0.441667
0.304167
0.666667
0.533333
0.541667
0.541667
0.537500
0.537500
0.537500
0.541667
0.541667
0.537500
0.537500
0.537500
0.541667
0.537500
0.537500
0.537500
0.537500
0.541667
0.537500
0.529167
0.545833
0.537500
0.541667
0.541667
0.537500
0.537500
0.541667
0.537500
0.550000
0.541667
0.541667
0.541667
0.541667
0.545833
0.545833
0.550000
0.545833
0.545833
0.545833
0.550000
0.545833
0.545833
0.541667
0.545833
0.545833
0.545833
0.541667
0.541667
0.541667
0.550000
0.541667
0.541667
0.541667
0.491667
0.250000
0.212500
0.254167
0.504167
0.454167
0.545833
0.541667
0.541667
0.541667
0.537500
0.537500
0.541667
0.545833
0.541667
0.537500
0.541667
0.541667
0.541667
0.541667
0.537500
0.545833
0.545833
0.537500
0.541667
0.537500
0.537500
0.545833
0.537500
0.541667
0.537500
0.537500
0.545833
0.537500
0.541667
0.537500
0.541667
0.537500
0.545833
0.541667
0.537500
0.541667
0.537500
0.545833
0.541667
0.537500
0.541667
0.537500
0.545833
0.541667
0.541667
0.537500
0.541667
0.541667
0.545833
0.537500
0.541667
0.541667
0.545833
0.541667
0.541667
0.541667
0.537500
0.545833
0.541667
0.541667
0.545833
0.533333
0.545833
0.545833
0.558333
0.245833
0.816667
0.545833
0.541667
0.541667
0.537500
0.541667
0.537500
0.545833
0.545833
0.537500
0.541667
0.425000
0.845833
0.908333
0.545833
0.550000
0.208333
0.341667
0.545833
0.195833
0.354167
0.558333
0.545833
0.554167
0.558333
0.558333
0.558333
0.558333
0.554167
0.558333
0.554167
0.554167
0.558333
0.554167
0.550000
0.550000
0.550000
0.545833
0.541667
0.550000
0.550000
0.541667
0.541667
0.545833
0.545833
0.537500
0.537500
0.541667
0.541667
0.537500
0.537500
0.533333
0.541667
0.537500
0.529167
0.541667
0.533333
0.537500
0.537500
0.312500
0.229167
0.537500
0.541667
0.275000
0.529167
0.345833
0.433333
0.279167
0.533333
0.341667
0.445833
0.283333
0.320833
1.104167
1.095833
1.100000
1.087500
1.637500
2.166667
2.154167
2.137500
0.600000
0.529167
0.350000
0.758333
0.250000
0.716667
0.745833
1.429167
0.583333
0.416667
1.075000
0.712500
1.870833
1.045833
0.625000
1.295833
1.625000
1.845833
0.354167
0.329167
0.445833
0.562500
0.904167
1.583333
1.579167
1.583333
1.587500
0.525000
1.587500
0.529167
1.058333
0.529167
0.529167
0.525000
0.537500
0.525000
0.529167
0.529167
0.529167
0.529167
0.525000
0.537500
0.525000
0.525000
0.533333
0.529167
0.525000
0.525000
0.533333
0.525000
0.529167
0.525000
0.533333
0.525000
0.262500
0.812500
0.229167
0.829167
0.516667
0.158333
0.370833
0.525000
0.529167
0.533333
0.529167
0.529167
0.525000
0.533333
0.533333
0.529167
0.529167
0.529167
0.533333
0.529167
0.529167
0.529167
0.529167
0.537500
0.529167
0.929167
0.225000
0.216667
0.229167
0.529167
0.358333
0.704167
0.533333
0.529167
0.529167
0.495833
0.312500
0.250000
0.529167
0.620833
0.454167
0.425000
0.312500
0.383333
0.354167
0.358333
0.320833
0.545833
0.545833
0.541667
0.545833
0.545833
0.545833
0.541667
0.537500
0.537500
0.541667
0.541667
0.537500
0.533333
0.537500
0.537500
0.533333
0.529167
0.533333
0.533333
0.537500
0.533333
0.529167
0.529167
0.537500
0.529167
0.529167
0.529167
0.529167
0.537500
0.525000
0.529167
0.529167
0.529167
0.537500
0.525000
0.529167
0.529167
0.533333
0.525000
0.525000
0.529167
0.529167
0.533333
0.525000
0.337500
0.425000
0.825000
0.529167
0.287500
0.245833
0.533333
0.533333
0.533333
0.529167
0.533333
0.533333
0.529167
0.295833
0.237500
0.537500
0.525000
0.529167
0.529167
0.533333
0.529167
0.525000
0.529167
0.529167
0.533333
0.529167
0.525000
0.529167
0.529167
0.529167
0.529167
0.529167
0.525000
0.533333
0.533333
0.525000
0.529167
0.529167
0.529167
0.533333
0.529167
0.529167
0.529167
0.529167
0.533333
0.529167
0.529167
0.529167
0.529167
0.533333
0.529167
0.529167
0.529167
0.529167
0.533333
0.533333
0.529167
0.529167
0.529167
0.529167
0.537500
0.529167
0.533333
0.529167
0.529167
0.537500
0.533333
0.529167
0.533333
0.533333
0.537500
0.529167
0.533333
0.533333
0.529167
0.537500
0.537500
0.533333
0.533333
0.533333
0.533333
0.537500
0.533333
0.529167
0.533333
0.533333
0.533333
0.533333
0.529167
0.529167
0.533333
0.533333
0.533333
0.533333
0.529167
0.529167
0.533333
0.533333
0.533333
0.529167
0.533333
0.529167
0.537500
0.533333
0.529167
0.533333
0.533333
0.533333
0.537500
0.533333
0.533333
0.533333
0.533333
0.537500
0.533333
0.533333
0.533333
0.533333
0.537500
0.537500
0.537500
0.533333
0.533333
0.533333
0.541667
0.533333
0.533333
0.533333
0.533333
0.537500
0.533333
0.533333
0.533333
0.533333
0.537500
0.537500
0.533333
0.533333
0.533333
0.533333
0.537500
0.533333
0.533333
0.533333
0.533333
0.537500
0.541667
0.533333
0.533333
0.533333
0.537500
0.404167
0.250000
0.195833
0.379167
0.366667
0.295833
0.337500
0.208333
0.325000
0.316667
0.775000
0.662500
0.375000
0.466667
0.158333
0.375000
0.391667
0.262500
0.337500
0.683333
0.412500
0.387500
0.716667
0.450000
0.179167
0.300000
0.662500
0.250000
0.491667
0.458333
0.362500
0.254167
0.312500
0.533333
0.533333
0.529167
0.529167
0.525000
0.500000
0.550000
0.208333
0.341667
0.529167
0.529167
0.537500
0.529167
0.529167
0.529167
0.529167
0.537500
0.529167
0.529167
0.529167
0.529167
0.533333
0.537500
0.529167
0.529167
0.529167
0.533333
0.537500
0.529167
0.529167
0.533333
0.533333
0.537500
0.533333
0.533333
0.533333
0.308333
0.225000
0.541667
0.533333
0.304167
0.454167
0.079167
0.429167
0.875000
0.533333
0.537500
0.533333
0.541667
0.537500
0.533333
0.537500
0.533333
0.537500
0.541667
0.533333
0.537500
0.533333
0.541667
0.541667
0.537500
0.533333
0.537500
0.537500
0.537500
0.533333
0.537500
0.716667
0.358333
0.537500
0.533333
0.537500
0.537500
0.541667
0.541667
0.533333
0.541667
0.537500
0.537500
0.541667
0.541667
0.537500
0.541667
0.537500
0.537500
0.541667
0.541667
0.541667
0.537500
0.541667
0.537500
0.483333
0.600000
0.541667
0.537500
0.537500
0.545833
0.545833
0.541667
0.537500
0.541667
0.541667
0.545833
0.541667
0.537500
0.541667
0.541667
0.541667
0.541667
0.537500
0.541667
0.537500
0.541667
0.541667
0.545833
0.541667
0.537500
0.541667
0.537500
0.541667
0.541667
0.537500
0.541667
0.537500
0.541667
0.541667
0.537500
0.537500
0.537500
0.537500
0.541667
0.537500
0.541667
0.533333
0.537500
0.541667
0.541667
0.537500
0.541667
0.541667
0.541667
0.541667
0.541667
0.537500
0.541667
0.541667
0.541667
0.541667
0.541667
0.545833
0.541667
0.537500
0.525000
0.558333
0.545833
0.537500
0.541667
0.541667
0.541667
0.545833
0.541667
1.250000
0.375000
0.808333
0.279167
0.541667
0.541667
0.683333
0.408333
0.537500
0.541667
0.541667
0.262500
0.279167
0.545833
0.541667
0.537500
0.541667
0.541667
0.545833
0.541667
0.541667
0.537500
0.541667
0.545833
0.541667
0.537500
0.537500
0.541667
0.545833
0.537500
0.541667
0.537500
0.537500
0.541667
0.541667
0.537500
0.541667
0.537500
0.537500
0.545833
0.541667
0.537500
0.537500
0.541667
0.541667
0.541667
0.545833
0.541667
0.541667
0.541667
0.541667
0.550000
0.229167
0.316667
0.537500
0.541667
0.545833
0.550000
0.541667
0.537500
0.545833
0.541667
0.550000
0.541667
0.541667
0.545833
0.541667
0.550000
0.537500
0.304167
0.241667
0.204167
0.337500
0.545833
0.545833
0.541667
0.541667
0.541667
0.541667
0.545833
0.537500
0.545833
0.537500
0.545833
0.545833
0.541667
0.541667
0.541667
0.541667
0.550000
0.537500
0.541667
0.541667
0.687500
0.575000
0.258333
0.645833
0.541667
0.450000
0.158333
0.475000
0.541667
0.545833
0.537500
0.541667
0.541667
0.537500
0.241667
0.300000
0.541667
0.258333
0.275000
0.087500
0.458333
0.545833
0.166667
0.375000
0.541667
0.250000
0.275000
0.350000
0.200000
0.545833
0.541667
0.537500
0.541667
0.216667
0.325000
0.541667
0.200000
0.341667
0.545833
0.537500
0.541667
0.545833
0.541667
0.537500
0.541667
0.545833
0.541667
0.545833
0.258333
0.333333
0.491667
0.275000
0.266667
0.312500
0.770833
0.541667
0.395833
0.691667
0.541667
0.541667
0.541667
0.541667
0.545833
0.541667
0.541667
0.545833
0.541667
0.550000
0.541667
0.541667
0.545833
0.545833
0.545833
0.545833
0.545833
0.541667
0.545833
0.541667
0.545833
0.541667
0.545833
0.637500
0.116667
0.875000
0.545833
0.537500
0.545833
0.545833
0.550000
0.529167
0.541667
0.545833
0.545833
0.541667
0.541667
0.545833
0.541667
0.545833
0.545833
0.545833
0.545833
0.541667
0.275000
0.270833
0.325000
0.220833
0.545833
0.541667
0.541667
0.545833
0.266667
0.125000
0.700000
0.545833
0.541667
0.545833
0.537500
0.558333
0.541667
0.545833
0.541667
0.545833
0.550000
0.541667
0.541667
0.245833
0.300000
0.545833
0.204167
0.341667
0.545833
0.541667
0.466667
0.629167
0.541667
0.545833
0.541667
0.545833
0.550000
0.545833
0.545833
0.587500
0.500000
0.545833
0.541667
0.541667
0.537500
0.558333
0.541667
0.541667
0.541667
0.541667
0.545833
