0.583333
0.579167
0.579167
0.583333
0.579167
0.587500
0.583333
0.583333
0.583333
0.566667
0.591667
0.579167
0.579167
0.575000
0.575000
0.579167
0.575000
0.575000
0.575000
0.579167
0.579167
0.579167
0.575000
0.579167
0.579167
0.579167
0.575000
0.579167
0.583333
0.579167
0.583333
0.579167
0.575000
0.579167
0.579167
0.570833
0.575000
0.579167
0.575000
0.566667
0.575000
0.575000
0.575000
0.570833
0.579167
0.575000
0.575000
0.579167
0.575000
0.575000
0.575000
0.579167
0.575000
0.579167
0.575000
0.579167
0.579167
0.575000
0.579167
0.579167
0.575000
0.579167
0.579167
0.575000
0.579167
0.579167
0.575000
0.575000
0.575000
0.579167
0.575000
0.570833
0.575000
0.575000
0.570833
0.570833
0.575000
0.562500
0.575000
0.570833
0.570833
0.575000
0.575000
0.579167
0.579167
0.575000
0.570833
0.579167
0.575000
0.579167
0.570833
0.570833
0.575000
0.575000
0.575000
0.575000
0.570833
0.575000
0.579167
0.575000
0.570833
0.570833
0.575000
0.570833
0.570833
0.570833
0.575000
0.575000
0.570833
0.570833
0.570833
0.566667
0.575000
0.575000
0.570833
0.575000
0.570833
0.570833
0.570833
0.575000
0.575000
0.570833
0.566667
0.570833
0.570833
0.570833
0.566667
0.570833
0.570833
0.570833
0.575000
0.566667
0.570833
0.570833
0.570833
0.570833
0.570833
0.566667
0.895833
0.250000
0.570833
0.566667
0.570833
0.570833
0.570833
0.575000
0.570833
0.575000
0.570833
0.570833
0.579167
0.575000
0.575000
0.570833
0.579167
0.575000
0.575000
0.570833
0.575000
0.570833
0.575000
0.570833
0.575000
0.570833
0.579167
0.579167
0.583333
0.579167
0.583333
0.583333
0.579167
0.579167
0.579167
0.579167
0.579167
0.575000
0.575000
0.583333
0.575000
0.575000
0.575000
0.570833
0.579167
0.575000
0.570833
0.583333
0.570833
0.583333
0.579167
0.579167
0.579167
0.579167
0.583333
0.579167
0.575000
0.579167
0.579167
0.579167
0.575000
0.575000
0.575000
0.575000
0.575000
0.566667
0.575000
0.575000
0.570833
0.575000
0.575000
0.575000
0.575000
0.579167
0.583333
0.579167
0.579167
0.579167
0.575000
0.579167
0.579167
0.575000
0.570833
0.579167
0.579167
0.570833
0.575000
0.579167
0.575000
0.575000
0.575000
0.579167
0.570833
0.579167
0.579167
0.570833
0.575000
0.495833
0.637500
0.575000
0.566667
0.566667
0.566667
0.566667
0.570833
0.254167
0.312500
0.570833
0.570833
0.566667
0.570833
0.579167
0.570833
0.570833
0.570833
0.575000
0.570833
0.575000
0.570833
0.566667
0.570833
0.562500
0.570833
0.570833
0.566667
0.566667
0.570833
0.566667
0.562500
0.566667
0.566667
0.562500
0.562500
0.562500
0.562500
0.558333
0.558333
0.558333
0.558333
0.562500
0.558333
0.562500
0.562500
0.558333
0.566667
0.562500
0.562500
0.562500
0.566667
0.566667
0.566667
0.562500
0.575000
0.570833
0.570833
0.570833
0.570833
0.570833
0.579167
0.570833
0.566667
0.570833
0.570833
0.570833
0.570833
0.570833
0.570833
0.575000
0.570833
0.575000
0.579167
0.579167
0.583333
0.579167
0.579167
0.579167
0.579167
0.583333
0.579167
0.579167
0.579167
0.583333
0.579167
0.579167
0.583333
0.579167
0.575000
0.579167
0.570833
0.570833
0.575000
0.575000
0.566667
0.570833
0.570833
0.570833
0.566667
0.566667
0.566667
0.566667
0.570833
0.566667
0.566667
0.566667
0.566667
0.566667
0.566667
0.566667
0.570833
0.566667
0.566667
0.566667
0.570833
0.566667
0.570833
0.566667
0.566667
0.566667
0.570833
0.566667
0.562500
0.562500
0.566667
0.562500
0.562500
0.558333
0.562500
0.562500
0.554167
0.558333
0.566667
0.562500
0.562500
0.558333
0.566667
0.562500
0.558333
0.562500
0.562500
0.562500
0.558333
0.562500
0.562500
0.554167
0.558333
0.558333
0.558333
0.554167
0.562500
0.558333
0.554167
0.558333
0.554167
0.558333
0.550000
0.554167
0.562500
0.558333
0.554167
0.558333
0.558333
0.558333
0.562500
0.562500
0.566667
0.562500
0.562500
0.566667
0.566667
0.562500
0.562500
0.562500
0.562500
0.562500
0.554167
0.562500
0.562500
0.562500
0.566667
0.566667
0.562500
0.566667
0.562500
0.558333
0.562500
0.554167
0.558333
0.554167
0.683333
0.229167
0.200000
0.558333
0.554167
0.554167
0.433333
0.550000
0.675000
0.554167
0.554167
0.550000
0.554167
0.554167
0.554167
0.554167
0.554167
0.550000
1.108333
0.545833
0.554167
0.554167
0.550000
0.554167
0.554167
0.558333
0.558333
0.554167
0.558333
0.558333
0.558333
0.558333
0.558333
0.558333
0.562500
0.558333
0.558333
0.562500
0.562500
0.558333
0.562500
0.566667
0.566667
0.562500
0.562500
0.562500
0.570833
0.566667
0.562500
0.562500
0.562500
0.566667
0.558333
0.558333
0.566667
0.120833
0.437500
0.554167
0.558333
0.558333
0.354167
0.762500
0.554167
0.558333
0.562500
0.562500
0.558333
0.558333
0.562500
0.558333
0.558333
0.558333
0.562500
0.558333
0.554167
0.558333
0.562500
0.562500
0.558333
0.562500
0.562500
0.562500
0.558333
0.566667
0.562500
0.566667
0.562500
0.562500
0.566667
0.562500
0.562500
0.566667
0.562500
0.570833
0.566667
0.562500
0.562500
0.558333
0.566667
0.562500
0.558333
0.558333
0.558333
0.558333
0.558333
0.558333
0.554167
0.558333
0.558333
0.554167
0.558333
0.554167
0.558333
0.558333
0.554167
0.554167
0.558333
0.554167
0.554167
0.554167
0.554167
0.558333
0.558333
0.550000
0.558333
0.554167
0.554167
0.554167
0.550000
0.554167
0.554167
0.550000
0.550000
0.550000
0.550000
0.550000
0.545833
0.550000
0.550000
0.545833
0.550000
0.545833
0.550000
0.550000
0.554167
0.550000
0.554167
0.554167
0.554167
0.550000
0.554167
0.558333
0.554167
0.550000
0.550000
0.558333
0.550000
0.550000
0.550000
0.545833
0.550000
0.550000
0.550000
0.550000
0.545833
0.554167
0.545833
0.550000
0.550000
0.550000
0.545833
0.550000
0.554167
0.550000
0.545833
0.554167
0.550000
0.550000
0.550000
0.550000
0.550000
0.545833
0.545833
0.545833
0.545833
0.541667
0.545833
0.545833
0.537500
0.545833
0.537500
0.537500
0.537500
0.537500
0.537500
0.537500
0.541667
0.533333
0.533333
0.533333
0.237500
0.300000
0.533333
0.533333
0.533333
0.537500
0.533333
0.533333
0.533333
0.537500
0.537500
0.537500
0.541667
0.537500
0.541667
0.550000
0.545833
0.545833
0.541667
0.541667
0.545833
0.541667
0.541667
0.541667
0.537500
0.541667
0.537500
0.541667
0.537500
0.537500
0.537500
0.541667
0.533333
0.537500
0.533333
0.533333
0.533333
0.537500
0.533333
0.533333
0.533333
0.533333
0.533333
0.533333
0.533333
0.533333
0.533333
0.529167
0.533333
0.537500
0.212500
0.316667
0.533333
0.533333
0.533333
0.533333
0.533333
0.529167
0.533333
0.429167
0.633333
0.533333
0.525000
0.545833
0.525000
0.533333
0.529167
0.533333
0.533333
0.529167
0.529167
0.537500
0.529167
0.533333
0.529167
0.537500
0.533333
0.529167
0.537500
0.533333
0.537500
0.537500
0.533333
0.541667
0.537500
0.541667
0.533333
0.537500
0.537500
0.533333
0.537500
0.533333
0.529167
0.537500
0.529167
0.533333
0.529167
0.525000
0.529167
0.529167
0.529167
0.525000
0.529167
0.525000
0.529167
0.525000
0.525000
0.529167
0.525000
0.529167
0.529167
0.529167
0.529167
0.529167
0.529167
0.533333
0.529167
0.533333
0.529167
0.529167
0.533333
0.533333
0.529167
0.533333
0.533333
0.533333
0.529167
0.533333
0.529167
0.529167
0.529167
0.529167
0.529167
0.525000
0.525000
0.529167
0.529167
0.295833
0.233333
0.525000
0.533333
0.525000
0.533333
0.537500
0.537500
0.537500
0.537500
0.545833
0.541667
0.541667
0.541667
0.537500
0.533333
0.537500
0.533333
0.537500
0.529167
0.633333
0.429167
0.479167
0.579167
0.362500
0.687500
0.533333
0.520833
0.533333
0.454167
0.583333
0.525000
0.525000
0.525000
0.525000
0.520833
0.520833
0.525000
0.520833
0.516667
0.525000
0.520833
0.520833
0.516667
0.520833
0.516667
0.520833
0.516667
0.516667
0.520833
0.516667
0.520833
0.520833
0.520833
0.525000
0.520833
0.525000
0.525000
0.525000
0.525000
0.520833
0.525000
0.520833
0.525000
0.520833
0.525000
0.520833
0.525000
0.525000
0.525000
0.525000
0.525000
0.525000
0.525000
0.525000
0.520833
0.525000
0.525000
0.520833
0.525000
0.520833
0.525000
0.525000
0.520833
0.525000
0.520833
0.525000
0.650000
0.233333
0.608333
0.587500
0.516667
0.520833
0.520833
0.520833
0.516667
0.520833
0.516667
0.520833
0.516667
0.520833
0.516667
0.516667
0.516667
0.520833
0.516667
0.512500
0.516667
0.516667
0.516667
0.512500
0.512500
0.516667
0.512500
0.516667
0.512500
0.516667
0.516667
0.516667
0.500000
0.250000
0.258333
0.266667
0.387500
0.387500
0.512500
0.508333
0.516667
0.512500
0.508333
0.512500
0.512500
0.512500
0.508333
0.508333
0.512500
0.508333
0.512500
0.508333
0.504167
0.508333
0.508333
0.508333
0.508333
0.504167
0.508333
0.516667
0.500000
0.504167
0.670833
0.350000
0.512500
0.504167
0.504167
0.512500
0.512500
0.508333
0.512500
0.508333
0.512500
0.512500
0.512500
0.516667
0.512500
0.512500
0.516667
0.512500
0.516667
0.512500
0.512500
0.516667
0.512500
0.516667
0.512500
0.512500
0.516667
0.512500
0.516667
0.512500
0.512500
0.516667
0.520833
0.512500
0.516667
0.516667
0.516667
0.516667
0.512500
0.516667
0.512500
0.512500
0.512500
0.512500
0.512500
0.512500
0.508333
0.512500
0.508333
0.516667
0.508333
0.512500
0.512500
0.512500
0.508333
0.512500
0.512500
0.508333
0.512500
0.512500
0.512500
0.516667
0.508333
0.508333
0.516667
0.512500
0.512500
0.512500
1.025000
0.508333
0.512500
0.516667
0.512500
0.512500
0.516667
0.516667
0.512500
0.520833
0.233333
0.354167
0.308333
0.345833
0.291667
0.454167
0.316667
0.262500
0.279167
0.750000
0.512500
0.512500
0.516667
0.512500
0.512500
0.512500
0.516667
0.512500
0.512500
0.516667
0.512500
0.516667
0.512500
0.516667
0.516667
0.512500
0.516667
0.512500
0.516667
0.233333
0.279167
0.508333
0.520833
0.341667
0.320833
0.358333
0.512500
0.512500
0.512500
0.512500
0.512500
0.516667
0.512500
0.512500
0.508333
0.512500
0.508333
0.508333
0.508333
0.512500
0.504167
0.329167
0.287500
0.912500
0.504167
0.508333
0.512500
0.504167
0.512500
0.504167
0.508333
0.508333
0.508333
0.512500
0.350000
0.308333
0.858333
0.504167
0.504167
0.508333
0.495833
0.516667
0.504167
0.504167
0.504167
0.500000
0.504167
0.504167
0.504167
0.504167
0.504167
0.504167
0.504167
0.504167
0.500000
0.504167
0.504167
0.504167
0.504167
0.504167
0.504167
0.508333
0.504167
0.504167
0.504167
0.512500
0.504167
0.508333
0.512500
0.512500
0.508333
0.512500
0.512500
0.512500
0.516667
0.516667
0.512500
0.520833
0.516667
0.512500
0.516667
0.520833
0.516667
0.516667
0.516667
0.520833
0.516667
0.516667
0.512500
0.516667
0.516667
0.512500
0.516667
0.520833
0.516667
0.516667
0.512500
0.516667
0.516667
0.516667
0.516667
0.512500
0.516667
0.516667
0.516667
0.516667
0.516667
0.516667
0.512500
0.520833
0.516667
0.516667
0.516667
0.516667
0.520833
0.516667
0.516667
0.520833
0.516667
0.516667
0.520833
0.516667
0.520833
0.516667
0.520833
0.525000
0.520833
0.520833
0.520833
0.520833
0.520833
0.520833
0.516667
0.520833
