0.550000
0.541667
0.545833
0.541667
0.541667
0.550000
0.541667
0.545833
0.541667
0.550000
0.541667
0.541667
0.545833
0.545833
0.541667
0.541667
0.541667
0.545833
0.541667
0.541667
0.541667
0.541667
0.550000
0.545833
0.541667
0.541667
0.545833
0.550000
0.541667
0.541667
0.541667
0.545833
0.550000
0.545833
0.541667
0.541667
0.541667
0.545833
0.545833
0.541667
0.541667
0.541667
0.545833
0.545833
0.541667
0.541667
0.545833
0.541667
0.545833
0.545833
0.541667
0.541667
0.545833
0.550000
0.541667
0.541667
0.541667
0.545833
0.545833
0.541667
0.541667
0.537500
0.545833
0.550000
0.537500
0.541667
0.541667
0.545833
0.545833
0.541667
0.541667
0.541667
0.545833
0.545833
0.541667
0.545833
0.541667
0.541667
0.550000
0.545833
0.541667
0.541667
0.545833
0.545833
0.545833
0.541667
0.541667
0.541667
0.550000
0.545833
0.541667
0.541667
0.545833
0.545833
0.545833
0.541667
0.545833
0.541667
0.545833
0.545833
0.541667
0.545833
0.545833
0.545833
0.545833
0.545833
0.545833
0.541667
0.545833
0.550000
0.545833
0.541667
0.545833
0.545833
0.550000
0.541667
0.545833
0.545833
0.545833
0.550000
0.550000
0.545833
0.541667
0.545833
0.545833
0.545833
0.550000
0.545833
0.545833
0.545833
0.550000
0.545833
0.545833
0.545833
0.545833
0.550000
0.545833
0.545833
0.550000
0.550000
0.545833
0.545833
0.550000
0.550000
0.550000
0.545833
0.545833
0.545833
0.554167
0.541667
0.545833
0.545833
0.550000
0.550000
0.541667
0.545833
0.545833
0.550000
0.541667
0.541667
0.541667
0.545833
0.550000
0.541667
0.541667
0.541667
0.550000
0.541667
0.541667
0.541667
0.545833
0.545833
0.545833
0.545833
0.545833
0.545833
0.545833
0.541667
0.545833
0.545833
0.550000
0.541667
0.545833
0.545833
0.550000
0.550000
0.541667
0.541667
0.550000
0.550000
0.545833
0.541667
0.545833
0.545833
0.545833
0.545833
0.541667
0.545833
0.550000
0.208333
0.329167
0.541667
0.541667
0.545833
0.550000
0.216667
0.325000
0.541667
0.541667
0.545833
0.550000
0.541667
0.541667
0.545833
0.545833
0.541667
0.545833
0.541667
0.545833
0.550000
0.541667
0.541667
0.545833
0.550000
0.545833
0.541667
0.541667
0.545833
0.550000
0.545833
0.541667
0.541667
0.545833
0.550000
0.541667
0.545833
0.545833
0.545833
0.545833
0.545833
0.541667
0.550000
0.550000
0.541667
0.545833
0.541667
0.550000
0.541667
0.545833
0.541667
0.545833
0.550000
0.541667
0.541667
0.545833
0.545833
0.541667
0.541667
0.541667
0.545833
0.550000
0.541667
0.541667
0.541667
0.550000
0.550000
0.541667
0.541667
0.545833
0.545833
0.545833
0.541667
0.541667
0.545833
0.550000
0.545833
0.541667
0.541667
0.541667
0.612500
0.479167
0.537500
0.541667
0.545833
0.550000
0.541667
0.541667
0.537500
0.545833
0.550000
0.541667
0.541667
0.412500
0.670833
0.550000
0.541667
0.537500
0.541667
0.545833
0.541667
0.541667
0.541667
0.541667
0.545833
0.541667
0.537500
0.475000
0.612500
0.558333
0.654167
0.070833
0.333333
0.770833
0.141667
0.708333
0.541667
0.533333
0.537500
0.541667
0.541667
0.533333
0.533333
0.541667
0.541667
0.533333
0.533333
0.537500
0.541667
0.537500
0.533333
0.537500
0.537500
0.541667
0.537500
0.533333
0.537500
0.541667
0.533333
0.537500
0.533333
0.537500
0.537500
0.537500
0.533333
0.533333
0.541667
0.537500
0.537500
0.537500
0.537500
0.541667
0.541667
0.537500
0.537500
0.537500
0.541667
0.541667
0.537500
0.537500
0.537500
0.541667
0.537500
0.537500
0.533333
0.541667
0.541667
0.541667
0.537500
0.533333
0.537500
0.545833
0.541667
0.537500
0.537500
0.537500
0.537500
0.541667
0.537500
0.537500
0.537500
0.541667
0.537500
0.537500
0.537500
0.537500
0.541667
0.541667
0.533333
0.537500
0.541667
0.541667
0.541667
0.537500
0.533333
0.537500
0.541667
0.541667
0.537500
0.537500
0.537500
0.537500
0.541667
0.537500
0.533333
0.537500
0.537500
0.541667
0.541667
0.537500
0.533333
0.537500
0.541667
0.541667
0.533333
0.537500
0.537500
0.537500
0.541667
0.533333
0.537500
0.537500
0.533333
0.541667
0.541667
0.533333
0.537500
0.541667
0.537500
0.541667
0.537500
0.537500
0.537500
0.541667
0.541667
0.541667
0.541667
0.537500
0.541667
0.541667
0.541667
0.541667
0.537500
0.541667
0.537500
0.545833
0.541667
0.537500
0.541667
0.541667
0.545833
0.537500
0.541667
0.537500
0.541667
0.545833
0.537500
0.537500
0.541667
0.537500
0.545833
0.541667
0.537500
0.541667
0.537500
0.541667
0.545833
0.541667
0.537500
0.541667
0.537500
0.545833
0.545833
0.537500
0.541667
0.541667
0.541667
0.550000
0.541667
0.541667
0.541667
0.541667
0.550000
0.541667
0.541667
0.541667
0.545833
0.545833
0.541667
0.537500
0.545833
0.545833
0.545833
0.545833
0.541667
0.545833
0.545833
0.541667
0.545833
0.545833
0.541667
0.545833
0.550000
0.545833
0.545833
0.545833
0.541667
0.550000
0.545833
0.541667
0.545833
0.541667
0.550000
0.550000
0.541667
0.545833
0.541667
0.545833
0.550000
0.541667
0.545833
0.541667
0.545833
0.550000
0.541667
0.541667
0.545833
0.545833
0.550000
0.541667
0.541667
0.541667
0.545833
0.545833
0.537500
0.541667
0.541667
0.541667
0.545833
0.541667
0.537500
0.537500
0.541667
0.545833
0.537500
0.537500
0.537500
0.537500
0.541667
0.541667
0.537500
0.537500
0.537500
0.537500
0.541667
0.545833
0.537500
0.537500
0.537500
0.541667
0.541667
0.541667
0.537500
0.541667
0.541667
0.550000
0.537500
0.541667
0.537500
0.545833
0.541667
0.541667
0.537500
0.541667
0.545833
0.550000
0.545833
0.537500
0.541667
0.541667
0.541667
0.541667
0.550000
0.537500
0.537500
0.537500
0.545833
0.545833
0.537500
0.537500
0.537500
0.541667
0.545833
0.537500
0.537500
0.541667
0.708333
0.370833
0.541667
0.541667
0.545833
0.541667
0.537500
0.541667
0.537500
0.545833
0.545833
0.537500
0.541667
0.537500
0.545833
0.545833
0.541667
0.537500
0.245833
0.295833
0.541667
0.545833
0.537500
0.541667
0.541667
0.545833
0.541667
0.545833
0.545833
0.541667
0.541667
0.550000
0.541667
0.541667
0.545833
0.545833
0.545833
0.545833
0.541667
0.545833
0.550000
0.541667
0.545833
0.541667
0.545833
0.554167
0.541667
0.541667
0.545833
0.545833
0.550000
0.545833
0.541667
0.545833
0.545833
0.550000
0.541667
0.545833
0.541667
0.550000
0.541667
0.545833
0.545833
0.541667
0.550000
0.541667
0.545833
0.541667
0.545833
0.545833
0.541667
0.541667
0.545833
0.545833
0.550000
0.541667
0.541667
0.545833
0.550000
0.550000
0.545833
0.545833
0.545833
0.550000
0.550000
0.545833
0.550000
0.545833
0.554167
0.550000
0.554167
0.550000
0.562500
0.558333
0.570833
0.562500
0.575000
0.570833
0.570833
0.570833
0.583333
0.583333
0.575000
0.566667
0.575000
0.583333
0.587500
0.579167
0.575000
0.587500
0.583333
0.575000
0.570833
0.579167
0.583333
0.575000
0.566667
0.570833
0.575000
0.570833
0.562500
0.570833
0.570833
0.566667
0.562500
0.562500
0.570833
0.558333
0.558333
0.558333
0.566667
0.558333
0.558333
0.554167
0.558333
0.554167
0.550000
0.554167
0.554167
0.558333
0.554167
0.550000
0.554167
0.554167
0.558333
0.550000
0.550000
0.558333
0.554167
0.554167
0.558333
0.562500
0.575000
0.575000
0.579167
0.579167
0.583333
0.575000
0.583333
0.583333
0.595833
0.591667
0.583333
0.583333
0.591667
0.591667
0.583333
0.587500
0.587500
0.583333
0.579167
0.579167
0.583333
0.575000
0.570833
0.562500
0.570833
0.570833
0.562500
0.554167
0.558333
0.562500
0.554167
0.554167
0.550000
0.554167
0.558333
0.550000
0.550000
0.545833
0.550000
0.554167
0.545833
0.550000
0.550000
0.550000
0.554167
0.545833
0.550000
0.545833
0.554167
0.554167
0.545833
0.550000
0.550000
0.554167
0.545833
0.550000
0.545833
0.554167
0.554167
0.550000
0.545833
0.554167
0.545833
0.550000
0.545833
0.550000
0.550000
0.545833
0.550000
0.550000
0.545833
0.541667
0.545833
0.550000
0.550000
0.541667
0.541667
0.545833
0.545833
0.545833
0.541667
0.541667
0.545833
0.545833
0.550000
0.541667
0.541667
0.541667
0.545833
0.545833
0.579167
0.341667
0.704167
0.312500
0.229167
0.545833
0.545833
0.537500
0.545833
0.545833
0.541667
0.541667
0.541667
0.545833
0.545833
0.541667
0.541667
0.541667
0.550000
0.541667
0.541667
0.541667
0.545833
0.545833
0.541667
0.541667
0.541667
0.545833
0.541667
0.541667
0.541667
0.550000
0.537500
0.541667
0.541667
0.545833
0.545833
0.541667
0.537500
0.541667
0.545833
0.545833
0.541667
0.537500
0.541667
0.541667
0.545833
0.541667
0.541667
0.541667
0.537500
0.545833
0.541667
0.541667
0.541667
0.541667
0.545833
0.541667
0.541667
0.537500
0.541667
0.545833
0.545833
0.541667
0.541667
0.541667
0.550000
0.541667
0.541667
0.541667
0.541667
0.550000
0.537500
0.541667
0.541667
0.541667
0.545833
0.545833
0.541667
0.537500
0.545833
0.545833
0.541667
0.537500
0.541667
0.545833
0.550000
0.537500
0.537500
0.541667
0.545833
0.541667
0.537500
0.541667
0.537500
0.541667
0.550000
0.537500
0.537500
0.541667
0.541667
0.545833
0.541667
0.537500
0.541667
0.541667
0.545833
0.545833
0.537500
0.545833
0.541667
0.545833
0.545833
0.541667
0.541667
0.541667
0.541667
0.545833
0.541667
0.541667
0.541667
0.545833
0.550000
0.541667
0.541667
0.541667
0.545833
0.550000
0.545833
0.545833
0.545833
0.541667
0.550000
0.541667
0.541667
0.541667
0.545833
0.545833
0.541667
0.541667
0.541667
0.545833
0.541667
0.541667
0.537500
0.541667
0.545833
0.545833
0.537500
0.541667
0.541667
0.545833
0.541667
0.537500
0.541667
0.541667
0.545833
0.541667
0.541667
0.537500
0.545833
0.545833
0.541667
0.545833
0.545833
0.545833
0.550000
0.541667
0.545833
0.545833
0.545833
0.550000
0.550000
0.541667
0.545833
0.545833
0.550000
0.550000
0.545833
0.545833
0.541667
0.545833
0.545833
0.545833
0.550000
0.541667
0.541667
0.541667
0.550000
0.545833
0.541667
0.541667
0.545833
0.545833
0.545833
0.541667
0.545833
0.541667
0.545833
0.545833
0.545833
0.545833
0.712500
0.387500
0.529167
0.275000
0.379167
0.570833
0.420833
0.541667
0.545833
0.545833
0.545833
0.550000
0.545833
0.545833
0.545833
0.545833
0.554167
0.545833
0.591667
0.654167
0.391667
0.612500
0.475000
0.708333
0.383333
0.550000
0.541667
0.541667
0.541667
0.545833
0.550000
0.541667
0.541667
0.537500
0.545833
0.545833
0.541667
0.487500
0.333333
0.262500
0.275000
0.270833
0.308333
0.320833
0.445833
0.550000
0.529167
0.541667
0.541667
0.550000
0.529167
0.537500
0.545833
0.541667
0.537500
0.541667
0.537500
0.545833
0.545833
0.541667
0.541667
0.541667
0.545833
0.550000
0.541667
0.541667
0.541667
0.541667
0.550000
0.541667
0.541667
0.541667
0.541667
0.545833
0.550000
0.537500
0.541667
0.541667
0.541667
0.545833
0.545833
0.433333
0.650000
0.541667
0.541667
0.545833
0.545833
0.541667
0.545833
0.550000
0.545833
0.541667
0.545833
0.550000
0.550000
0.545833
0.266667
0.279167
0.250000
0.300000
0.550000
0.545833
0.550000
0.545833
0.554167
0.545833
0.550000
0.545833
0.550000
0.550000
0.550000
0.545833
0.541667
0.550000
0.550000
