0.629167
0.637500
0.687500
0.745833
0.629167
0.550000
0.775000
0.433333
0.737500
0.554167
0.558333
0.587500
0.758333
0.420833
0.454167
0.570833
0.766667
0.450000
0.737500
0.554167
0.595833
0.737500
0.408333
0.745833
0.745833
0.512500
0.758333
0.583333
0.508333
0.570833
0.512500
0.408333
0.650000
0.620833
0.570833
0.633333
0.362500
0.629167
0.566667
0.379167
0.745833
0.591667
0.704167
0.587500
0.750000
0.491667
0.666667
0.466667
0.554167
0.441667
0.758333
0.479167
0.654167
0.470833
0.654167
0.387500
0.629167
0.475000
0.591667
0.487500
0.645833
0.595833
0.300000
0.450000
0.508333
0.729167
0.741667
0.520833
0.541667
0.283333
0.225000
0.425000
0.295833
0.754167
0.662500
0.387500
0.608333
0.495833
0.420833
0.366667
0.370833
0.366667
0.508333
0.758333
0.600000
0.479167
0.412500
0.579167
0.754167
0.475000
0.725000
0.541667
0.729167
0.350000
0.616667
0.637500
0.658333
0.691667
0.733333
0.387500
0.637500
0.562500
0.533333
0.645833
0.316667
0.379167
0.437500
0.220833
0.500000
0.533333
0.875000
0.162500
0.870833
0.433333
0.700000
0.762500
0.445833
0.287500
0.462500
0.529167
1.200000
0.741667
0.562500
0.112500
0.533333
0.416667
0.437500
0.733333
0.633333
0.375000
0.787500
0.608333
0.425000
0.670833
0.495833
0.425000
0.583333
0.533333
0.500000
0.545833
0.400000
0.462500
0.358333
0.591667
0.525000
0.645833
0.512500
0.633333
0.662500
0.558333
0.550000
0.775000
0.625000
0.537500
0.545833
0.512500
0.691667
0.708333
0.420833
0.658333
0.433333
0.683333
0.787500
0.737500
0.587500
0.537500
0.700000
0.700000
0.454167
0.662500
0.395833
0.687500
0.745833
0.383333
0.720833
0.416667
0.408333
0.404167
0.629167
0.404167
0.633333
0.533333
0.545833
0.508333
0.683333
0.704167
0.541667
0.558333
0.612500
0.445833
0.629167
0.737500
0.637500
0.412500
0.366667
0.604167
0.575000
0.445833
0.579167
0.629167
0.450000
0.625000
0.637500
0.483333
0.500000
0.575000
0.612500
0.433333
0.595833
0.458333
0.408333
0.858333
0.616667
0.558333
0.612500
0.600000
0.625000
0.700000
0.750000
0.404167
0.629167
0.408333
0.808333
0.570833
0.612500
0.575000
0.670833
0.700000
0.491667
0.662500
0.687500
0.683333
0.637500
0.766667
0.650000
0.650000
0.620833
0.641667
0.691667
0.512500
0.420833
0.704167
0.458333
0.800000
0.770833
0.470833
0.616667
0.604167
0.487500
0.775000
0.562500
0.766667
0.462500
0.587500
0.920833
0.616667
0.604167
0.566667
0.533333
0.641667
0.566667
0.537500
0.533333
0.583333
0.633333
0.704167
0.654167
0.487500
0.904167
0.737500
0.633333
0.433333
0.862500
0.658333
0.712500
0.537500
0.633333
0.733333
0.554167
0.712500
0.579167
0.562500
0.575000
0.591667
0.554167
0.575000
0.666667
0.479167
0.591667
0.641667
0.712500
0.495833
0.608333
0.358333
0.225000
0.687500
0.612500
0.520833
0.558333
0.604167
0.320833
0.141667
0.454167
0.550000
0.395833
0.445833
0.408333
0.533333
0.587500
0.387500
0.745833
0.562500
0.470833
0.566667
0.441667
0.679167
0.550000
0.625000
0.816667
0.508333
0.604167
0.812500
0.566667
0.545833
0.658333
0.550000
0.454167
0.608333
0.716667
0.516667
0.475000
0.612500
0.558333
0.512500
0.704167
0.554167
0.591667
0.412500
0.683333
0.612500
0.645833
0.595833
0.541667
0.612500
0.575000
0.537500
0.429167
0.695833
0.391667
0.387500
0.616667
0.604167
0.650000
0.616667
0.670833
0.566667
0.733333
0.645833
0.491667
0.587500
0.587500
0.516667
0.491667
0.591667
0.462500
0.650000
0.600000
0.650000
0.583333
0.550000
0.558333
0.579167
0.629167
0.629167
0.595833
0.695833
0.479167
0.545833
0.479167
0.445833
0.566667
0.466667
0.595833
0.458333
0.508333
0.512500
0.704167
0.700000
0.441667
0.537500
0.479167
0.687500
0.350000
0.375000
0.675000
0.770833
0.529167
0.620833
0.383333
0.654167
0.625000
0.625000
0.620833
0.537500
0.691667
0.445833
0.679167
0.441667
0.512500
0.616667
0.500000
0.616667
0.266667
0.337500
0.416667
0.387500
0.225000
0.450000
0.629167
0.616667
0.666667
0.725000
0.491667
0.470833
0.620833
0.658333
0.550000
0.529167
0.633333
0.512500
0.658333
0.591667
1.208333
1.416667
1.166667
1.162500
0.516667
0.570833
0.745833
0.666667
0.591667
0.583333
0.541667
0.470833
0.483333
0.683333
0.558333
0.566667
0.575000
0.675000
0.408333
0.495833
0.433333
0.625000
0.475000
0.529167
0.466667
0.779167
0.495833
0.541667
0.587500
0.575000
0.558333
0.450000
0.437500
0.675000
0.562500
0.658333
0.500000
0.562500
0.533333
0.533333
0.562500
0.412500
0.416667
0.816667
0.608333
0.429167
0.679167
0.616667
0.462500
0.408333
0.375000
0.391667
0.641667
0.579167
0.745833
0.575000
0.525000
0.675000
0.437500
0.508333
0.658333
0.470833
0.558333
0.508333
0.441667
0.700000
0.579167
0.637500
0.533333
0.637500
0.541667
0.787500
0.683333
0.658333
0.395833
0.708333
0.462500
0.587500
0.695833
0.437500
0.783333
0.537500
0.587500
0.391667
0.420833
0.654167
0.512500
0.541667
0.591667
0.462500
0.679167
0.675000
0.691667
0.325000
0.316667
0.425000
0.295833
0.400000
0.250000
0.929167
0.066667
0.195833
0.433333
0.191667
0.287500
0.191667
0.833333
0.412500
0.791667
0.245833
0.316667
0.545833
0.429167
0.212500
0.408333
0.433333
0.462500
0.533333
0.370833
0.391667
0.904167
0.216667
0.304167
0.662500
0.470833
0.750000
0.462500
0.620833
0.437500
0.391667
0.379167
0.437500
0.562500
0.962500
0.345833
0.725000
0.575000
0.400000
0.529167
0.508333
0.420833
0.595833
0.362500
0.395833
0.375000
0.395833
0.558333
0.666667
0.641667
0.441667
0.687500
0.383333
0.579167
0.437500
0.666667
0.550000
0.666667
0.516667
0.812500
0.525000
0.779167
0.358333
0.900000
0.450000
0.683333
0.237500
0.225000
0.270833
0.633333
0.587500
0.637500
0.291667
0.045833
0.233333
0.450000
0.558333
0.233333
0.358333
0.429167
0.187500
0.445833
0.075000
0.312500
0.291667
0.300000
0.570833
0.541667
0.308333
0.308333
0.541667
0.262500
0.808333
0.545833
0.470833
0.591667
0.912500
0.229167
0.450000
0.258333
0.516667
1.025000
0.391667
0.275000
0.675000
0.595833
0.491667
0.633333
0.662500
0.979167
0.683333
0.220833
0.204167
0.541667
0.575000
0.637500
1.216667
0.975000
0.504167
0.858333
0.675000
0.725000
0.600000
0.520833
0.200000
1.258333
0.583333
0.470833
0.587500
0.625000
0.704167
0.441667
1.058333
0.462500
0.416667
0.250000
1.133333
0.370833
0.612500
0.537500
0.945833
0.370833
0.766667
0.370833
0.700000
0.454167
0.304167
1.154167
1.200000
1.391667
0.570833
0.500000
1.066667
0.745833
0.500000
0.658333
0.583333
0.625000
0.333333
0.987500
0.558333
1.141667
0.670833
0.537500
0.441667
0.420833
0.383333
0.437500
0.416667
0.475000
0.604167
0.550000
0.458333
0.662500
0.583333
0.604167
1.075000
0.595833
0.491667
0.645833
0.241667
0.891667
0.466667
0.600000
0.575000
0.462500
0.325000
0.695833
0.516667
0.433333
0.737500
0.375000
0.366667
0.466667
0.691667
0.504167
0.562500
0.500000
0.608333
0.462500
0.637500
0.533333
0.537500
0.350000
0.450000
0.541667
0.620833
0.291667
0.275000
0.558333
0.216667
0.483333
0.208333
0.320833
0.633333
0.558333
0.466667
0.420833
0.445833
0.387500
0.587500
0.420833
0.700000
0.608333
0.741667
0.604167
0.479167
0.529167
0.537500
0.604167
0.558333
0.579167
0.545833
0.620833
0.504167
0.625000
0.508333
0.645833
0.400000
0.737500
0.658333
0.387500
0.870833
0.645833
0.716667
0.441667
0.550000
0.595833
0.583333
0.662500
0.525000
0.579167
0.475000
0.412500
0.566667
0.591667
0.466667
0.708333
0.779167
0.729167
0.650000
0.675000
0.191667
0.612500
0.500000
0.495833
0.537500
0.254167
0.354167
0.587500
0.604167
0.612500
0.683333
0.762500
0.595833
0.500000
0.408333
0.208333
0.300000
0.479167
0.758333
0.254167
0.275000
0.754167
0.841667
0.845833
0.262500
0.204167
0.620833
0.504167
0.429167
0.604167
0.545833
0.591667
0.537500
0.483333
0.279167
0.295833
0.529167
0.575000
0.412500
0.487500
0.137500
0.791667
0.400000
0.483333
0.679167
0.400000
0.320833
0.608333
0.483333
0.591667
0.391667
0.233333
0.416667
0.354167
0.379167
0.425000
0.633333
0.595833
0.366667
0.383333
0.695833
0.466667
0.520833
0.562500
0.454167
0.641667
0.566667
0.575000
0.720833
0.345833
0.216667
0.645833
0.329167
0.208333
0.420833
0.508333
0.287500
0.462500
0.375000
0.625000
0.470833
0.704167
0.512500
0.708333
0.550000
0.550000
0.612500
0.458333
0.562500
0.725000
0.541667
0.462500
0.654167
0.604167
0.429167
0.345833
0.387500
0.691667
0.550000
0.575000
0.695833
0.700000
0.516667
0.554167
0.550000
0.383333
0.400000
0.925000
0.295833
0.904167
0.229167
0.270833
0.633333
0.679167
0.541667
0.425000
0.470833
0.529167
0.654167
0.437500
0.404167
0.691667
0.429167
0.245833
0.200000
0.587500
0.520833
0.504167
0.591667
0.587500
0.483333
0.650000
0.587500
0.662500
0.400000
0.408333
0.695833
0.454167
0.462500
0.712500
0.316667
0.704167
0.433333
0.633333
0.654167
0.700000
0.629167
0.566667
0.425000
0.612500
0.741667
0.529167
0.658333
0.570833
0.641667
0.462500
0.633333
0.508333
0.433333
0.675000
0.566667
0.716667
0.520833
0.491667
0.645833
0.854167
0.483333
0.637500
0.433333
0.783333
0.645833
0.633333
0.770833
0.420833
0.579167
0.545833
0.595833
0.504167
0.716667
0.395833
0.783333
0.537500
0.466667
0.554167
0.666667
0.487500
0.366667
0.704167
0.529167
0.591667
0.783333
0.770833
0.650000
0.520833
0.495833
0.666667
0.758333
0.691667
0.491667
0.612500
0.462500
0.520833
0.725000
0.533333
0.762500
0.679167
0.662500
0.512500
0.658333
0.491667
0.875000
0.612500
0.679167
0.383333
0.516667
0.550000
0.825000
0.587500
0.550000
0.587500
0.595833
0.500000
0.625000
0.650000
0.429167
0.604167
0.562500
0.645833
0.683333
0.591667
0.562500
0.495833
0.545833
0.670833
0.775000
0.683333
0.370833
0.604167
0.558333
0.508333
0.604167
0.462500
0.433333
0.858333
0.479167
0.479167
0.583333
0.491667
0.433333
0.550000
0.566667
0.491667
0.520833
0.645833
0.545833
0.366667
0.683333
0.762500
0.533333
0.504167
0.487500
0.270833
0.458333
0.366667
0.750000
0.550000
0.783333
0.370833
1.050000
0.429167
0.250000
0.479167
0.262500
0.304167
0.400000
0.316667
0.620833
0.658333
0.495833
0.533333
0.637500
0.562500
0.437500
0.729167
0.541667
0.525000
0.441667
0.445833
0.412500
0.579167
0.404167
0.229167
0.379167
0.366667
0.500000
0.370833
0.508333
0.354167
0.645833
0.454167
0.395833
0.433333
0.383333
0.608333
0.483333
0.487500
0.691667
0.612500
0.500000
0.783333
0.545833
0.683333
0.575000
0.700000
0.483333
0.595833
0.479167
0.754167
0.625000
0.508333
0.700000
0.579167
0.479167
0.716667
0.650000
0.662500
0.400000
0.616667
0.483333
0.737500
0.512500
