0.554167
0.554167
0.554167
0.558333
0.558333
0.550000
0.554167
0.337500
0.762500
0.545833
0.545833
0.283333
0.258333
0.262500
0.275000
0.545833
0.529167
0.529167
0.533333
0.537500
0.529167
0.529167
0.533333
0.529167
0.533333
0.533333
0.537500
0.537500
0.537500
0.541667
0.541667
0.537500
0.541667
0.545833
0.545833
0.545833
0.545833
0.550000
0.545833
0.550000
0.550000
0.545833
0.545833
0.550000
0.554167
0.550000
0.550000
0.550000
0.554167
0.554167
0.558333
0.554167
0.550000
0.562500
0.558333
0.554167
0.550000
0.562500
0.545833
0.554167
0.558333
0.554167
0.554167
0.550000
0.558333
0.558333
0.554167
0.558333
0.566667
0.562500
0.566667
0.562500
0.562500
0.562500
0.566667
0.558333
0.562500
0.562500
0.562500
0.562500
0.566667
0.566667
0.562500
0.566667
0.566667
0.562500
0.554167
0.558333
0.504167
0.233333
0.387500
0.400000
0.695833
0.554167
0.550000
0.550000
0.545833
0.550000
0.550000
0.545833
0.550000
0.550000
0.545833
0.545833
0.554167
0.550000
0.550000
0.554167
0.554167
0.550000
0.554167
0.554167
0.550000
0.550000
0.554167
0.554167
0.554167
0.554167
0.554167
0.558333
0.554167
0.558333
0.558333
0.558333
0.558333
0.554167
0.558333
0.554167
0.558333
0.554167
0.554167
0.554167
0.554167
0.641667
0.454167
0.825000
0.266667
0.416667
0.125000
0.329167
0.216667
0.537500
0.537500
0.537500
0.537500
0.533333
0.229167
0.270833
0.483333
0.620833
0.537500
0.533333
0.537500
0.533333
0.533333
0.533333
0.533333
0.537500
0.537500
0.541667
0.537500
0.541667
0.533333
0.537500
0.537500
0.537500
0.541667
0.537500
0.541667
0.541667
0.541667
0.541667
0.541667
0.545833
0.541667
0.541667
0.545833
0.550000
0.545833
0.550000
0.550000
0.545833
0.545833
0.550000
0.545833
0.550000
0.541667
0.550000
0.545833
0.550000
0.545833
0.554167
0.550000
0.554167
0.550000
0.550000
0.554167
0.550000
0.558333
0.554167
0.550000
0.558333
0.550000
0.545833
0.541667
0.541667
0.404167
0.491667
0.925000
0.220833
0.266667
0.929167
0.533333
0.229167
0.300000
0.533333
0.529167
0.529167
0.529167
0.525000
0.533333
0.529167
0.529167
0.529167
0.529167
0.529167
0.529167
0.537500
0.533333
0.537500
0.537500
0.537500
0.541667
0.537500
0.541667
0.537500
0.545833
0.541667
0.545833
0.545833
0.545833
0.550000
0.545833
0.554167
0.550000
0.904167
0.195833
0.554167
0.554167
0.241667
0.304167
0.541667
0.550000
0.541667
0.541667
0.545833
0.537500
0.537500
0.533333
0.533333
0.533333
0.537500
0.533333
0.529167
0.537500
0.533333
0.537500
0.529167
0.433333
0.645833
0.541667
0.541667
0.537500
0.541667
0.541667
0.541667
0.541667
0.541667
0.541667
0.545833
0.545833
0.545833
0.541667
0.541667
0.545833
0.541667
0.545833
0.545833
0.541667
0.550000
0.545833
0.545833
0.550000
0.550000
0.550000
0.550000
0.541667
0.391667
0.700000
0.275000
0.266667
0.833333
0.241667
0.533333
0.533333
0.533333
0.341667
0.366667
0.345833
0.541667
0.520833
0.525000
0.525000
0.525000
0.520833
0.525000
0.516667
0.312500
0.216667
0.516667
0.516667
0.512500
0.512500
0.516667
0.516667
0.516667
0.516667
0.520833
0.520833
0.520833
0.520833
0.525000
0.525000
0.529167
0.529167
0.533333
0.537500
0.533333
0.533333
0.533333
0.533333
0.529167
0.529167
0.537500
0.533333
0.533333
0.533333
0.533333
0.533333
0.537500
0.533333
0.533333
0.537500
0.541667
0.541667
0.537500
0.550000
0.541667
0.537500
0.541667
0.545833
0.537500
0.545833
0.545833
0.550000
0.545833
0.545833
0.554167
0.545833
0.550000
0.545833
0.545833
0.550000
0.550000
0.550000
0.554167
0.550000
0.550000
0.550000
0.554167
0.554167
0.554167
0.550000
0.554167
0.554167
0.558333
0.558333
0.554167
0.562500
0.554167
0.558333
0.550000
0.558333
0.550000
0.554167
0.554167
0.520833
0.575000
0.641667
0.450000
0.550000
0.545833
0.541667
0.533333
0.537500
0.666667
0.233333
0.716667
0.287500
0.787500
0.533333
0.533333
0.533333
0.533333
0.533333
0.533333
0.529167
0.529167
0.525000
0.533333
0.529167
0.529167
0.529167
0.529167
0.529167
0.529167
0.533333
0.529167
0.533333
0.533333
0.537500
0.537500
0.541667
0.541667
0.541667
0.537500
0.537500
0.537500
0.541667
0.537500
0.541667
0.541667
0.537500
0.541667
0.541667
0.537500
0.537500
0.537500
0.537500
0.537500
0.529167
0.533333
0.708333
0.333333
0.545833
0.529167
0.520833
0.525000
0.529167
0.525000
0.525000
0.520833
0.525000
0.529167
0.520833
0.525000
0.525000
0.525000
0.529167
0.525000
0.529167
0.529167
0.533333
0.529167
0.525000
0.529167
0.533333
0.533333
0.529167
0.529167
0.533333
0.529167
0.525000
0.520833
0.525000
0.529167
0.520833
0.529167
0.529167
0.529167
0.533333
0.533333
0.529167
0.533333
0.529167
0.533333
0.537500
0.533333
0.533333
0.541667
0.537500
0.537500
0.537500
0.537500
0.545833
0.545833
0.541667
0.545833
0.541667
0.537500
0.541667
0.541667
0.537500
0.541667
0.541667
0.545833
0.541667
0.541667
0.541667
0.550000
0.545833
0.550000
0.550000
0.545833
0.541667
0.541667
0.545833
0.550000
0.545833
0.545833
0.550000
0.550000
0.550000
0.550000
0.550000
0.550000
0.550000
0.550000
0.545833
0.179167
0.366667
0.545833
0.541667
0.283333
0.208333
0.600000
0.533333
0.537500
0.537500
0.533333
0.533333
0.350000
0.216667
0.491667
0.525000
0.525000
0.525000
0.520833
0.520833
0.520833
0.520833
0.520833
0.520833
0.520833
0.520833
0.520833
0.525000
0.525000
0.525000
0.529167
0.529167
0.533333
0.525000
0.529167
0.529167
0.529167
0.529167
0.525000
0.529167
0.529167
0.533333
0.529167
0.525000
0.533333
0.533333
0.537500
0.529167
0.537500
0.533333
0.537500
0.533333
0.533333
0.537500
0.537500
0.533333
0.533333
0.537500
0.541667
0.541667
0.545833
0.545833
0.545833
0.545833
0.545833
0.550000
0.550000
0.558333
0.554167
0.554167
0.550000
0.550000
0.554167
0.545833
0.554167
0.545833
0.558333
0.550000
0.545833
0.550000
0.550000
0.550000
0.545833
0.550000
0.545833
0.550000
0.545833
0.541667
0.550000
0.541667
0.545833
0.541667
0.545833
0.550000
0.550000
0.558333
0.150000
0.379167
0.558333
0.545833
0.541667
0.541667
0.537500
0.537500
0.533333
0.541667
0.341667
0.004167
0.725000
0.533333
0.529167
0.533333
0.154167
0.375000
0.529167
0.525000
0.525000
0.529167
0.525000
0.520833
0.525000
0.525000
0.525000
0.529167
0.520833
0.525000
0.533333
0.529167
0.533333
0.529167
0.537500
0.541667
0.529167
0.537500
0.654167
0.075000
0.891667
0.533333
0.533333
0.529167
0.529167
0.525000
0.533333
0.525000
0.516667
0.529167
0.533333
0.529167
0.525000
0.529167
0.525000
0.525000
0.529167
0.525000
0.533333
0.533333
0.529167
0.537500
0.533333
0.529167
0.533333
0.537500
0.533333
0.537500
0.541667
0.537500
0.537500
0.541667
0.529167
0.537500
0.533333
0.537500
0.537500
0.537500
0.537500
0.541667
0.537500
0.533333
0.537500
0.537500
0.537500
0.533333
0.533333
0.537500
0.537500
0.537500
0.533333
0.541667
0.537500
0.537500
0.533333
0.533333
0.537500
0.529167
0.533333
0.520833
0.404167
0.133333
0.529167
0.525000
0.529167
0.529167
0.529167
0.529167
0.525000
0.529167
0.529167
0.525000
0.525000
0.525000
0.529167
0.525000
0.529167
0.529167
0.525000
0.533333
0.525000
0.529167
0.529167
0.525000
0.529167
0.537500
0.533333
0.529167
0.533333
0.266667
0.266667
0.175000
0.354167
0.525000
0.520833
0.525000
0.520833
0.525000
0.520833
0.520833
0.525000
0.525000
0.525000
0.525000
0.529167
0.525000
0.533333
0.533333
0.537500
0.533333
0.533333
0.533333
0.533333
0.537500
0.537500
0.541667
0.533333
0.541667
0.541667
0.537500
0.537500
0.537500
0.541667
0.541667
0.537500
0.537500
0.537500
0.541667
0.537500
0.541667
0.537500
0.541667
0.545833
0.541667
0.545833
0.541667
0.545833
0.541667
0.541667
0.541667
0.541667
0.541667
0.541667
0.545833
0.541667
0.545833
0.545833
0.541667
0.545833
0.545833
0.545833
0.550000
0.550000
0.545833
0.545833
0.550000
0.541667
0.550000
0.550000
0.550000
0.550000
0.554167
0.550000
0.545833
0.545833
0.545833
0.554167
0.550000
0.550000
0.550000
0.545833
0.550000
0.550000
0.550000
0.545833
0.550000
0.541667
0.550000
0.550000
0.545833
0.550000
0.545833
0.550000
0.545833
0.554167
0.554167
0.545833
0.554167
0.554167
0.554167
0.550000
0.554167
0.554167
0.554167
0.554167
0.562500
0.550000
0.558333
0.554167
0.558333
0.558333
0.554167
0.554167
0.558333
0.545833
0.558333
0.541667
0.550000
0.541667
0.541667
0.541667
0.541667
0.770833
0.308333
0.545833
0.445833
0.616667
0.537500
0.529167
0.533333
0.533333
0.537500
0.533333
0.533333
0.533333
0.533333
0.529167
0.533333
0.537500
0.537500
0.529167
0.541667
0.537500
0.537500
0.537500
0.537500
0.541667
0.541667
0.537500
0.545833
0.525000
0.537500
0.529167
0.529167
0.533333
0.525000
0.470833
0.095833
0.500000
0.379167
0.654167
0.520833
0.520833
0.520833
0.520833
0.516667
0.525000
0.525000
0.525000
0.525000
0.525000
0.525000
0.525000
0.525000
0.525000
0.520833
0.525000
0.525000
0.525000
0.529167
0.529167
0.525000
0.533333
0.529167
0.529167
0.537500
0.533333
0.533333
0.529167
0.533333
0.541667
0.304167
0.312500
0.445833
0.533333
0.525000
0.404167
0.275000
0.483333
0.416667
0.520833
0.433333
0.095833
1.045833
0.520833
0.516667
0.520833
0.516667
0.516667
0.512500
0.516667
0.520833
0.516667
0.516667
0.516667
0.525000
0.520833
0.525000
0.520833
0.520833
0.525000
0.525000
0.520833
0.525000
0.520833
0.529167
0.525000
0.529167
0.529167
0.533333
0.533333
0.525000
0.533333
0.579167
0.558333
0.454167
0.320833
0.383333
0.345833
0.520833
0.520833
0.516667
0.516667
0.520833
0.520833
0.400000
0.629167
0.512500
0.516667
0.520833
0.512500
0.520833
0.520833
0.520833
0.516667
0.525000
0.525000
0.525000
0.533333
0.533333
0.529167
0.533333
0.533333
0.533333
0.533333
0.537500
0.533333
0.537500
0.541667
0.537500
0.533333
0.545833
0.537500
0.145833
0.545833
0.370833
0.416667
0.279167
0.362500
0.208333
0.325000
0.520833
0.525000
0.525000
0.525000
0.525000
0.525000
0.529167
0.525000
0.533333
0.533333
0.533333
0.533333
0.533333
0.533333
0.533333
0.533333
0.537500
0.533333
0.537500
0.533333
0.541667
0.537500
0.537500
0.533333
0.537500
0.537500
0.537500
0.537500
0.533333
0.537500
0.533333
0.541667
0.533333
0.529167
0.529167
0.529167
0.529167
0.529167
0.533333
0.529167
0.529167
0.525000
0.537500
0.529167
0.529167
0.533333
0.529167
0.529167
0.533333
0.525000
0.529167
0.533333
0.533333
0.533333
0.533333
0.541667
0.537500
0.533333
0.533333
0.520833
0.529167
0.525000
0.400000
0.520833
0.645833
0.379167
0.679167
0.262500
0.745833
0.520833
0.512500
0.516667
0.512500
0.516667
0.520833
0.516667
0.512500
0.520833
0.520833
0.520833
0.525000
0.520833
0.520833
0.529167
0.529167
0.525000
0.525000
0.525000
0.529167
0.525000
0.533333
0.558333
0.483333
0.670833
0.379167
0.520833
0.520833
0.504167
0.287500
0.233333
0.295833
0.716667
0.508333
0.512500
0.508333
0.516667
0.512500
0.512500
0.520833
0.512500
0.516667
0.520833
0.516667
0.520833
0.520833
0.520833
0.520833
0.525000
0.516667
0.370833
0.154167
0.270833
0.250000
0.516667
0.545833
0.075000
0.308333
0.320833
0.720833
0.087500
0.270833
0.312500
0.958333
0.512500
0.512500
0.512500
0.516667
0.508333
0.508333
0.512500
0.508333
0.512500
0.516667
0.516667
0.512500
0.512500
0.516667
0.516667
0.520833
