0.512500
0.512500
0.512500
0.512500
0.520833
0.512500
0.512500
0.512500
0.508333
0.512500
0.520833
0.512500
0.508333
0.512500
0.516667
0.512500
0.512500
0.512500
0.512500
0.516667
0.512500
0.508333
0.512500
0.512500
0.512500
0.512500
0.512500
0.516667
0.512500
0.450000
0.566667
0.516667
0.516667
0.420833
0.579167
0.516667
0.516667
0.512500
0.512500
0.512500
0.512500
0.520833
0.508333
0.512500
0.512500
0.512500
0.512500
0.512500
0.512500
0.512500
0.516667
0.516667
0.508333
0.512500
0.512500
0.512500
0.516667
0.512500
0.508333
0.516667
0.512500
0.512500
0.512500
0.508333
0.516667
0.508333
0.512500
0.516667
0.520833
0.512500
0.512500
0.508333
0.512500
0.512500
0.512500
0.412500
0.329167
0.637500
0.541667
0.533333
0.412500
0.587500
0.525000
0.512500
0.512500
0.516667
0.516667
0.520833
0.520833
0.508333
0.508333
0.425000
0.570833
0.516667
0.512500
0.400000
0.587500
0.520833
0.512500
0.408333
0.587500
0.520833
0.516667
0.512500
0.516667
0.512500
0.512500
0.516667
0.516667
0.512500
0.512500
0.516667
0.516667
0.516667
0.516667
0.516667
0.512500
0.416667
0.587500
0.520833
0.516667
0.516667
0.516667
0.512500
0.516667
0.516667
0.512500
0.512500
0.404167
0.591667
0.525000
0.516667
0.425000
0.575000
0.520833
0.516667
0.516667
0.512500
0.516667
0.516667
0.516667
0.512500
0.512500
0.516667
0.516667
0.516667
0.512500
0.512500
0.516667
0.416667
0.579167
0.520833
0.516667
0.400000
0.591667
0.525000
0.512500
0.516667
0.512500
0.512500
0.516667
0.516667
0.512500
0.512500
0.512500
0.520833
0.512500
0.512500
0.512500
0.508333
0.512500
0.512500
0.512500
0.512500
0.516667
0.512500
0.508333
0.512500
0.512500
0.512500
0.512500
0.512500
0.516667
0.516667
0.512500
0.508333
0.512500
0.508333
0.512500
0.512500
0.512500
0.512500
0.512500
0.512500
0.512500
0.512500
0.512500
0.508333
0.512500
0.516667
0.516667
0.512500
0.512500
0.512500
0.512500
0.516667
0.508333
0.520833
0.512500
0.512500
0.512500
0.404167
0.595833
0.520833
0.512500
0.516667
0.512500
0.516667
0.512500
0.520833
0.516667
0.512500
0.516667
0.516667
0.516667
0.512500
0.516667
0.520833
0.512500
0.516667
0.512500
0.516667
0.512500
0.520833
0.512500
0.516667
0.516667
0.516667
0.516667
0.512500
0.516667
0.520833
0.520833
0.512500
0.516667
0.512500
0.512500
0.512500
0.512500
0.516667
0.516667
0.516667
0.512500
0.375000
0.612500
0.529167
0.516667
0.516667
0.516667
0.520833
0.516667
0.516667
0.516667
0.520833
0.516667
0.516667
0.516667
0.516667
0.516667
0.520833
0.516667
0.516667
0.516667
0.516667
0.516667
0.516667
0.516667
0.512500
0.516667
0.516667
0.516667
0.516667
0.516667
0.425000
0.583333
0.525000
0.516667
0.516667
0.516667
0.516667
0.516667
0.516667
0.520833
0.516667
0.512500
0.516667
0.516667
0.516667
0.516667
0.516667
0.516667
0.516667
0.512500
0.520833
0.520833
0.516667
0.516667
0.516667
0.516667
0.516667
0.520833
0.520833
0.516667
0.516667
0.512500
0.516667
0.516667
0.516667
0.516667
0.512500
0.520833
0.429167
0.579167
0.525000
0.516667
0.516667
0.520833
0.516667
0.516667
0.516667
0.520833
0.516667
0.516667
0.525000
0.516667
0.512500
0.516667
0.516667
0.525000
0.512500
0.516667
0.512500
0.516667
0.512500
0.516667
0.516667
0.425000
0.587500
0.520833
0.516667
0.516667
0.516667
0.516667
0.516667
0.516667
0.512500
0.516667
0.512500
0.520833
0.512500
0.516667
0.512500
0.516667
0.429167
0.579167
0.520833
0.520833
0.400000
0.595833
0.525000
0.516667
0.516667
0.520833
0.516667
0.512500
0.516667
0.520833
0.512500
0.516667
0.512500
0.516667
0.512500
0.516667
0.512500
0.520833
0.516667
0.516667
0.516667
0.516667
0.516667
0.512500
0.520833
0.520833
0.516667
0.516667
0.416667
0.579167
0.525000
0.516667
0.516667
0.516667
0.516667
0.516667
0.512500
0.516667
0.520833
0.445833
0.566667
0.525000
0.520833
0.512500
0.516667
0.512500
0.516667
0.516667
0.516667
0.520833
0.512500
0.400000
0.591667
0.525000
0.516667
0.512500
0.516667
0.516667
0.516667
0.512500
0.516667
0.516667
0.512500
0.516667
0.512500
0.512500
0.512500
0.520833
0.512500
0.512500
0.512500
0.516667
0.512500
0.483333
0.537500
0.516667
0.512500
0.400000
0.587500
0.525000
0.520833
0.512500
0.512500
0.512500
0.512500
0.516667
0.516667
0.512500
0.516667
0.516667
0.508333
0.508333
0.508333
0.508333
0.512500
0.512500
0.512500
0.512500
0.425000
0.579167
0.520833
0.516667
0.516667
0.520833
0.516667
0.520833
0.516667
0.520833
0.516667
0.437500
0.579167
0.525000
0.520833
0.412500
0.591667
0.529167
0.520833
0.458333
0.562500
0.525000
0.516667
0.437500
0.575000
0.525000
0.512500
0.458333
0.562500
0.525000
0.516667
0.458333
0.558333
0.520833
0.520833
0.454167
0.562500
0.520833
0.516667
0.462500
0.562500
0.516667
0.520833
0.516667
0.516667
0.512500
0.516667
0.516667
0.516667
0.516667
0.295833
0.641667
0.550000
0.520833
0.520833
0.516667
0.516667
0.516667
0.516667
0.516667
0.520833
0.516667
0.516667
0.516667
0.516667
0.516667
0.520833
0.516667
0.512500
0.520833
0.512500
0.516667
0.516667
0.516667
0.516667
0.512500
0.516667
0.520833
0.516667
0.516667
0.516667
0.516667
0.408333
0.591667
0.525000
0.516667
0.516667
0.520833
0.516667
0.512500
0.516667
0.516667
0.516667
0.516667
0.512500
0.525000
0.370833
0.608333
0.537500
0.516667
0.516667
0.516667
0.520833
0.516667
0.512500
0.512500
0.516667
0.512500
0.512500
0.520833
0.512500
0.516667
0.516667
0.512500
0.516667
0.516667
0.512500
0.520833
0.516667
0.512500
0.520833
0.516667
0.512500
0.512500
0.520833
0.516667
0.512500
0.512500
0.508333
0.512500
0.512500
0.516667
0.512500
0.512500
0.520833
0.512500
0.512500
0.516667
0.512500
0.516667
0.512500
0.512500
0.516667
0.516667
0.516667
0.516667
0.512500
0.512500
0.516667
0.520833
0.512500
0.512500
0.512500
0.516667
0.512500
0.512500
0.516667
0.516667
0.512500
0.516667
0.516667
0.516667
0.512500
0.516667
0.512500
0.450000
0.570833
0.520833
0.512500
0.404167
0.591667
0.525000
0.516667
0.520833
0.516667
0.516667
0.516667
0.516667
0.520833
0.520833
0.437500
0.575000
0.520833
0.520833
0.520833
0.516667
0.516667
0.520833
0.516667
0.516667
0.516667
0.520833
0.516667
0.520833
0.520833
0.516667
0.520833
0.520833
0.520833
0.516667
0.520833
0.516667
0.520833
0.520833
0.520833
0.520833
0.516667
0.516667
0.525000
0.516667
0.516667
0.512500
0.520833
0.516667
0.512500
0.520833
0.516667
0.516667
0.516667
0.516667
0.512500
0.516667
0.516667
0.516667
0.520833
0.520833
0.516667
0.516667
0.512500
0.520833
0.520833
0.516667
0.516667
0.516667
0.520833
0.516667
0.516667
0.516667
0.516667
0.520833
0.516667
0.520833
0.391667
0.604167
0.525000
0.520833
0.516667
0.520833
0.520833
0.312500
0.650000
0.541667
0.520833
0.512500
0.512500
0.512500
0.516667
0.512500
0.516667
0.516667
0.516667
0.516667
0.295833
0.591667
0.545833
0.537500
0.520833
0.516667
0.520833
0.512500
0.520833
0.516667
0.375000
0.612500
0.529167
0.516667
0.520833
0.520833
0.512500
0.520833
0.520833
0.516667
0.516667
0.520833
0.516667
0.512500
0.516667
0.516667
0.516667
0.516667
0.516667
0.516667
0.520833
0.512500
0.516667
0.512500
0.516667
0.516667
0.512500
0.516667
0.516667
0.520833
0.516667
0.520833
0.516667
0.516667
0.520833
0.512500
0.520833
0.516667
0.516667
0.516667
0.516667
0.516667
0.516667
0.516667
0.516667
0.516667
0.516667
0.516667
0.516667
0.516667
0.516667
0.520833
0.516667
0.520833
0.516667
0.516667
0.516667
0.516667
0.520833
0.516667
0.520833
0.520833
0.520833
0.516667
0.516667
0.520833
0.516667
0.516667
0.520833
0.520833
0.520833
0.520833
0.420833
0.587500
0.529167
0.520833
0.408333
0.591667
0.525000
0.525000
0.516667
0.516667
0.520833
0.516667
0.516667
0.516667
0.470833
0.562500
0.520833
0.520833
0.516667
0.520833
0.516667
0.516667
0.520833
0.525000
0.520833
0.516667
0.520833
0.516667
0.516667
0.520833
0.516667
0.520833
0.420833
0.587500
0.525000
0.520833
0.520833
0.516667
0.520833
0.516667
0.520833
0.529167
0.516667
0.416667
0.587500
0.525000
0.516667
0.516667
0.520833
0.516667
0.516667
0.516667
0.520833
0.516667
0.516667
0.516667
0.516667
0.516667
0.516667
0.516667
0.525000
0.516667
0.516667
0.516667
0.516667
0.516667
0.516667
0.516667
0.520833
0.516667
0.516667
0.516667
0.516667
0.512500
0.516667
0.516667
0.516667
0.516667
0.520833
0.516667
0.516667
0.516667
0.520833
0.520833
0.516667
0.516667
0.412500
0.587500
0.529167
0.520833
0.516667
0.516667
0.520833
0.516667
0.520833
0.512500
0.516667
0.516667
0.520833
0.520833
0.516667
0.516667
0.516667
0.516667
0.516667
0.520833
0.512500
0.525000
0.525000
0.516667
0.516667
0.375000
0.612500
0.529167
0.516667
0.516667
0.520833
0.516667
0.520833
0.516667
0.516667
0.462500
0.562500
0.525000
0.516667
0.520833
0.520833
0.520833
0.516667
0.520833
0.525000
0.525000
0.516667
0.516667
0.516667
0.516667
0.516667
0.516667
0.520833
0.516667
0.520833
0.516667
0.516667
0.520833
0.516667
0.516667
0.520833
0.520833
0.516667
0.520833
0.516667
0.520833
0.525000
0.520833
0.516667
0.516667
0.516667
0.516667
0.520833
0.516667
0.437500
0.575000
0.525000
0.520833
0.420833
0.587500
0.520833
0.520833
0.516667
0.520833
0.525000
0.520833
0.516667
0.520833
0.516667
0.516667
0.520833
0.520833
0.516667
0.516667
0.516667
0.520833
0.520833
0.516667
0.516667
0.516667
0.516667
0.516667
0.520833
0.516667
0.520833
0.525000
0.516667
0.516667
0.429167
0.579167
0.525000
0.520833
0.520833
0.520833
0.516667
0.516667
0.516667
0.520833
0.516667
0.520833
0.516667
0.520833
0.520833
0.516667
0.520833
0.520833
0.520833
0.525000
0.516667
0.520833
0.516667
0.520833
0.520833
0.516667
0.525000
0.520833
0.520833
0.516667
0.520833
0.516667
0.525000
0.520833
0.520833
0.520833
0.520833
0.516667
0.520833
0.520833
0.520833
0.525000
0.520833
0.525000
0.525000
0.525000
0.516667
0.512500
0.512500
0.516667
0.408333
0.595833
0.525000
0.520833
0.520833
0.520833
0.520833
0.520833
0.525000
0.525000
0.520833
0.525000
0.529167
0.525000
0.520833
0.525000
0.525000
0.525000
0.525000
0.525000
0.525000
0.529167
0.520833
0.525000
0.408333
0.604167
0.533333
0.520833
0.525000
0.520833
0.525000
0.520833
0.520833
0.520833
0.525000
0.441667
0.575000
0.529167
0.520833
0.420833
0.591667
0.529167
0.520833
0.520833
0.520833
0.520833
0.520833
0.516667
0.520833
0.520833
0.520833
0.437500
0.579167
0.525000
0.520833
0.520833
0.520833
0.520833
0.516667
0.520833
0.520833
0.520833
0.441667
0.575000
0.529167
0.520833
0.520833
0.516667
0.520833
0.520833
0.516667
0.520833
0.520833
0.516667
0.520833
0.520833
0.520833
0.520833
0.520833
0.516667
0.525000
0.520833
0.520833
0.520833
0.516667
0.520833
0.520833
0.520833
0.525000
0.516667
0.400000
0.600000
0.533333
0.520833
0.520833
0.516667
0.525000
0.516667
0.520833
0.520833
0.520833
0.520833
0.516667
0.520833
0.516667
0.520833
0.520833
0.520833
0.516667
0.520833
0.520833
0.516667
0.520833
0.520833
0.516667
0.520833
0.525000
0.520833
0.520833
0.520833
0.516667
0.520833
0.516667
0.520833
0.525000
0.520833
0.516667
0.404167
0.604167
0.525000
0.520833
0.520833
0.516667
0.520833
0.516667
0.520833
0.520833
0.520833
0.445833
0.570833
0.520833
0.520833
0.516667
0.520833
0.520833
0.516667
0.516667
0.520833
0.520833
0.516667
0.516667
0.520833
0.516667
0.516667
0.520833
0.516667
0.520833
