0.579167
0.583333
0.575000
0.579167
0.570833
0.583333
0.575000
0.575000
0.575000
0.575000
0.583333
0.575000
0.579167
0.575000
0.587500
0.579167
0.579167
0.579167
0.583333
0.583333
0.579167
0.575000
0.587500
0.579167
0.583333
0.579167
0.579167
0.591667
0.579167
0.579167
0.579167
0.587500
0.579167
0.575000
0.583333
0.583333
0.579167
0.575000
0.583333
0.583333
0.579167
0.579167
0.579167
0.583333
0.579167
0.575000
0.575000
0.587500
0.575000
0.575000
0.579167
0.583333
0.575000
0.575000
0.583333
0.575000
0.575000
0.579167
0.579167
0.575000
0.575000
0.575000
0.587500
0.575000
0.575000
0.575000
0.583333
0.575000
0.575000
0.575000
0.583333
0.575000
0.575000
0.575000
0.579167
0.575000
0.575000
0.570833
0.583333
0.570833
0.570833
0.575000
0.579167
0.570833
0.570833
0.575000
0.579167
0.575000
0.570833
0.579167
0.579167
0.575000
0.575000
0.575000
0.583333
0.570833
0.575000
0.579167
0.579167
0.575000
0.575000
0.579167
0.579167
0.579167
0.575000
0.583333
0.579167
0.579167
0.579167
0.587500
0.579167
0.575000
0.579167
0.587500
0.579167
0.575000
0.579167
0.583333
0.579167
0.575000
0.575000
0.587500
0.575000
0.575000
0.575000
0.579167
0.587500
0.579167
0.579167
0.579167
0.579167
0.579167
0.575000
0.575000
0.579167
0.575000
0.575000
0.575000
0.579167
0.579167
0.575000
0.579167
0.554167
0.420833
0.766667
0.575000
0.575000
0.579167
0.575000
0.575000
0.579167
0.579167
0.575000
0.583333
0.583333
0.591667
0.604167
0.616667
0.612500
0.612500
0.612500
0.391667
0.220833
0.616667
0.608333
0.200000
0.316667
0.304167
0.408333
0.629167
0.625000
0.625000
0.620833
0.616667
0.608333
0.604167
0.604167
0.608333
0.595833
0.587500
0.591667
0.591667
0.583333
0.579167
0.583333
0.583333
0.575000
0.575000
0.579167
0.579167
0.345833
0.220833
0.625000
0.316667
0.283333
0.491667
0.570833
0.566667
0.570833
0.566667
0.566667
0.566667
0.570833
0.579167
0.562500
0.537500
0.629167
0.579167
0.579167
0.583333
0.583333
0.600000
0.591667
0.833333
0.350000
0.716667
0.479167
0.600000
0.600000
0.195833
0.412500
0.316667
0.633333
0.866667
0.362500
0.258333
0.608333
0.608333
0.604167
0.358333
0.254167
0.287500
0.295833
0.308333
0.433333
0.445833
0.566667
0.575000
0.579167
0.583333
0.570833
0.570833
0.579167
0.566667
0.566667
0.575000
0.570833
0.562500
0.566667
0.570833
0.562500
0.562500
0.558333
0.570833
0.558333
0.558333
0.558333
0.570833
0.558333
0.554167
0.558333
0.558333
0.554167
0.558333
0.562500
0.554167
0.550000
0.558333
0.550000
0.550000
0.554167
0.558333
0.550000
0.550000
0.550000
0.558333
0.550000
0.554167
0.554167
0.558333
0.554167
0.550000
0.704167
0.404167
0.550000
0.550000
0.558333
0.554167
0.545833
0.554167
0.554167
0.550000
0.545833
0.591667
0.512500
0.550000
0.550000
0.558333
0.595833
0.495833
0.554167
0.550000
0.545833
0.554167
0.558333
0.550000
0.545833
0.554167
0.550000
0.545833
0.554167
0.558333
0.550000
0.550000
0.558333
0.550000
0.550000
0.554167
0.550000
0.550000
0.550000
0.558333
0.550000
0.550000
0.554167
0.550000
0.550000
0.550000
0.554167
0.545833
0.550000
0.550000
0.558333
0.550000
0.550000
0.550000
0.558333
0.554167
0.558333
0.554167
0.708333
0.400000
0.566667
0.283333
0.283333
0.566667
0.570833
0.370833
0.208333
0.575000
0.579167
0.583333
0.575000
0.570833
0.579167
0.583333
0.575000
0.575000
0.579167
0.570833
0.566667
0.579167
0.562500
0.562500
0.566667
0.562500
0.558333
0.562500
0.558333
0.554167
0.558333
0.562500
0.554167
0.554167
0.558333
0.558333
0.550000
0.554167
0.558333
0.554167
0.550000
0.558333
0.550000
0.554167
0.554167
0.558333
0.554167
0.550000
0.554167
0.554167
0.545833
0.554167
0.562500
0.550000
0.550000
0.554167
0.550000
0.550000
0.554167
0.558333
0.550000
0.541667
0.570833
0.541667
0.679167
0.975000
0.545833
0.550000
0.554167
0.545833
0.550000
0.550000
0.558333
0.550000
0.545833
0.558333
0.550000
0.545833
0.550000
0.550000
0.550000
0.550000
0.558333
0.554167
0.550000
0.558333
0.554167
0.550000
0.558333
0.550000
0.550000
0.558333
0.550000
0.545833
0.558333
0.554167
0.554167
0.550000
0.562500
0.554167
0.550000
0.558333
0.554167
0.554167
0.558333
0.550000
0.554167
0.558333
0.562500
0.554167
0.554167
0.562500
0.558333
0.554167
0.562500
0.554167
0.554167
0.558333
0.558333
0.558333
0.562500
0.566667
0.558333
0.558333
0.570833
0.412500
0.145833
0.558333
0.566667
0.558333
0.558333
0.562500
0.566667
0.558333
0.558333
0.566667
0.558333
0.558333
0.558333
0.558333
0.558333
0.554167
0.562500
0.558333
0.554167
0.558333
0.558333
0.554167
0.554167
0.566667
0.550000
0.145833
0.408333
0.554167
0.554167
0.550000
0.554167
0.562500
0.554167
0.550000
0.558333
0.554167
0.554167
0.554167
0.566667
0.554167
0.550000
0.562500
0.554167
0.550000
0.562500
0.554167
0.554167
0.562500
0.562500
0.554167
0.558333
0.562500
0.558333
0.554167
0.558333
0.558333
0.558333
0.554167
0.566667
0.558333
0.554167
0.566667
0.554167
0.558333
0.562500
0.558333
0.558333
0.558333
0.570833
0.562500
0.558333
0.566667
0.562500
0.558333
0.308333
0.350000
0.283333
0.741667
0.566667
0.558333
0.558333
0.570833
0.562500
0.558333
0.566667
0.558333
0.558333
0.566667
0.558333
0.554167
0.562500
0.562500
0.558333
0.558333
0.570833
0.558333
0.554167
0.562500
0.562500
0.554167
0.554167
0.566667
0.558333
0.554167
0.562500
0.554167
0.558333
0.558333
0.566667
0.558333
0.554167
0.562500
0.558333
0.558333
0.558333
0.375000
0.925000
0.379167
0.566667
0.558333
0.554167
0.566667
0.558333
0.554167
0.558333
0.558333
0.554167
0.554167
0.562500
0.558333
0.554167
0.554167
0.566667
0.558333
0.554167
0.558333
0.558333
0.554167
0.337500
0.212500
0.562500
0.558333
0.554167
0.566667
0.558333
0.554167
0.562500
0.558333
0.550000
0.562500
0.558333
0.554167
0.554167
0.566667
0.554167
0.554167
0.566667
0.550000
0.554167
0.562500
0.558333
0.554167
0.762500
0.354167
0.220833
0.895833
0.566667
0.562500
0.545833
0.345833
0.212500
0.554167
0.404167
0.716667
0.541667
0.562500
0.554167
0.550000
0.558333
0.558333
0.554167
0.558333
0.554167
0.558333
0.562500
0.554167
0.550000
0.566667
0.554167
0.550000
0.558333
0.558333
0.554167
0.554167
0.554167
0.558333
0.554167
0.550000
0.562500
0.554167
0.550000
0.333333
0.225000
0.558333
0.554167
0.200000
0.350000
0.558333
0.554167
0.554167
0.550000
0.558333
0.554167
0.550000
0.558333
0.558333
0.550000
0.558333
0.558333
0.554167
0.550000
0.558333
0.558333
0.550000
0.558333
0.558333
0.558333
0.550000
0.558333
0.558333
0.554167
0.658333
0.416667
0.595833
0.554167
0.387500
0.733333
0.554167
0.562500
0.554167
0.554167
0.558333
0.554167
0.554167
0.558333
0.562500
0.558333
0.554167
0.558333
0.554167
0.554167
0.558333
0.562500
0.554167
0.554167
0.558333
0.558333
0.558333
0.554167
0.558333
0.558333
0.550000
0.554167
0.562500
0.558333
0.554167
0.558333
0.562500
0.554167
0.558333
0.562500
0.554167
0.558333
0.566667
0.554167
0.562500
0.229167
0.337500
0.558333
0.562500
0.566667
0.216667
0.141667
0.316667
0.450000
0.562500
0.575000
0.562500
0.562500
0.566667
0.575000
0.566667
0.562500
0.566667
0.566667
0.566667
0.558333
0.570833
0.562500
0.562500
0.562500
0.570833
0.562500
0.558333
0.570833
0.562500
0.558333
0.566667
0.558333
0.558333
0.566667
0.558333
0.558333
0.562500
0.566667
0.558333
0.558333
0.562500
0.558333
0.558333
0.566667
0.558333
0.562500
0.566667
0.558333
0.562500
0.562500
0.558333
0.562500
0.566667
0.558333
0.562500
0.566667
0.558333
0.562500
0.566667
0.558333
0.558333
0.566667
0.558333
0.558333
0.562500
0.558333
0.558333
0.558333
0.562500
0.558333
0.558333
0.562500
0.558333
0.558333
0.566667
0.558333
0.625000
0.500000
0.179167
0.375000
0.554167
0.491667
0.633333
0.554167
0.566667
0.554167
0.558333
0.558333
0.633333
0.487500
0.558333
0.554167
0.562500
0.558333
0.558333
0.562500
0.562500
0.558333
0.562500
0.562500
0.558333
0.554167
0.562500
0.558333
0.558333
0.558333
0.566667
0.558333
0.558333
0.562500
0.558333
0.558333
0.562500
0.558333
0.558333
0.562500
0.562500
0.562500
0.558333
0.562500
0.562500
0.558333
0.562500
0.570833
0.558333
0.558333
0.566667
0.562500
0.558333
0.566667
0.562500
0.558333
0.562500
0.570833
0.558333
0.558333
0.566667
0.566667
0.562500
0.562500
0.566667
0.562500
0.558333
0.566667
0.562500
0.562500
0.562500
0.566667
0.562500
0.558333
0.570833
0.558333
0.558333
0.566667
0.562500
0.554167
0.529167
0.604167
0.554167
0.562500
0.566667
0.558333
0.558333
0.566667
0.558333
0.562500
0.558333
0.575000
0.304167
0.250000
0.558333
0.562500
0.354167
0.404167
0.366667
0.558333
0.558333
0.566667
0.558333
0.558333
0.562500
0.558333
0.558333
0.562500
0.570833
0.558333
0.554167
0.566667
0.558333
0.558333
0.566667
0.558333
0.558333
0.562500
0.575000
0.558333
0.566667
0.566667
0.562500
0.562500
0.570833
0.562500
0.562500
0.566667
0.570833
0.566667
0.558333
0.575000
0.558333
0.562500
0.616667
0.625000
0.441667
0.366667
0.762500
0.558333
0.558333
0.570833
0.562500
0.554167
0.566667
0.562500
0.558333
0.566667
0.562500
0.558333
0.566667
0.558333
0.554167
0.566667
0.558333
0.566667
0.558333
0.558333
0.562500
0.566667
0.562500
0.566667
0.562500
0.558333
0.558333
0.566667
0.558333
0.558333
0.566667
0.566667
0.558333
0.566667
0.241667
0.325000
0.566667
0.566667
0.570833
0.566667
0.566667
0.566667
0.570833
0.566667
0.562500
0.566667
0.570833
0.562500
0.566667
0.566667
0.562500
0.566667
0.566667
0.562500
0.566667
0.570833
0.562500
0.562500
0.566667
0.562500
0.566667
0.566667
0.562500
0.666667
0.429167
0.600000
0.570833
0.562500
0.558333
0.570833
0.558333
0.562500
0.570833
0.191667
0.366667
0.558333
0.570833
0.558333
0.562500
0.566667
0.558333
0.212500
0.345833
0.570833
0.558333
0.558333
0.566667
0.558333
0.554167
0.566667
0.558333
0.554167
0.566667
0.558333
0.554167
0.566667
0.558333
0.554167
0.562500
0.554167
0.558333
0.633333
0.241667
0.579167
0.220833
0.204167
0.275000
0.637500
0.820833
0.350000
0.504167
0.204167
0.354167
0.554167
0.562500
0.558333
0.558333
0.558333
0.562500
0.558333
0.562500
0.562500
0.566667
0.562500
0.562500
0.570833
0.566667
0.562500
0.570833
0.562500
0.566667
0.562500
0.575000
0.566667
0.562500
0.575000
0.566667
0.566667
0.575000
0.570833
0.566667
0.579167
0.570833
0.566667
0.575000
0.570833
0.566667
0.575000
0.579167
0.570833
0.570833
0.575000
0.570833
0.570833
0.575000
0.570833
0.570833
0.570833
0.579167
0.566667
0.566667
0.575000
0.566667
0.562500
0.575000
0.570833
0.566667
0.566667
0.575000
0.566667
0.566667
0.566667
0.575000
0.566667
0.562500
0.566667
0.575000
