0.354167
0.429167
0.383333
0.550000
0.537500
0.545833
0.541667
0.541667
0.545833
0.545833
0.541667
0.545833
0.537500
0.545833
0.545833
0.545833
0.541667
0.545833
0.545833
0.450000
0.333333
0.433333
0.416667
0.391667
0.695833
0.545833
0.541667
0.541667
0.545833
0.545833
0.541667
0.729167
0.354167
0.545833
0.550000
0.545833
0.541667
0.541667
0.541667
0.545833
0.545833
0.545833
0.541667
0.545833
0.541667
0.545833
0.541667
0.541667
0.545833
0.541667
0.550000
0.545833
0.541667
0.545833
0.545833
0.545833
0.404167
0.683333
0.554167
0.550000
0.550000
0.554167
0.550000
0.550000
0.550000
0.554167
0.554167
0.545833
0.550000
0.550000
0.554167
0.545833
0.545833
0.545833
0.545833
0.550000
0.545833
0.541667
0.545833
0.550000
0.550000
0.545833
0.541667
0.541667
0.545833
0.550000
0.545833
0.545833
0.545833
0.545833
0.545833
0.545833
0.545833
0.545833
0.545833
0.550000
0.541667
0.545833
0.545833
0.545833
0.545833
0.545833
0.541667
0.545833
0.562500
0.516667
0.550000
0.541667
0.545833
0.550000
0.312500
0.229167
0.541667
0.545833
0.550000
0.545833
0.545833
0.541667
0.475000
0.620833
0.545833
0.541667
0.545833
0.545833
0.554167
0.533333
0.541667
0.550000
0.545833
0.545833
0.545833
0.541667
0.545833
0.545833
0.541667
0.545833
0.545833
0.541667
0.550000
0.537500
0.541667
0.545833
0.541667
0.545833
0.541667
0.541667
0.545833
0.545833
0.541667
0.545833
0.541667
0.545833
0.650000
0.441667
0.541667
0.541667
0.545833
0.545833
0.541667
0.541667
0.545833
0.545833
0.545833
0.541667
0.545833
0.550000
0.545833
0.545833
0.545833
0.529167
0.570833
0.545833
0.545833
0.550000
0.554167
0.545833
0.545833
0.620833
0.475000
0.558333
0.312500
0.233333
0.541667
0.387500
0.170833
0.308333
0.229167
0.329167
0.275000
0.429167
0.062500
0.545833
0.545833
0.545833
0.550000
0.545833
0.541667
0.545833
0.550000
0.550000
0.545833
0.545833
0.262500
0.283333
1.091667
0.541667
0.545833
0.545833
0.550000
0.545833
0.212500
0.329167
0.545833
0.545833
0.408333
0.683333
0.545833
0.545833
0.545833
0.550000
0.545833
0.545833
0.541667
0.545833
0.550000
0.545833
0.545833
0.550000
0.545833
0.550000
0.550000
0.545833
0.550000
0.554167
0.550000
0.545833
0.554167
0.550000
0.554167
0.550000
0.554167
0.554167
0.558333
0.554167
0.554167
0.812500
0.308333
0.808333
0.070833
0.250000
0.645833
0.420833
0.370833
0.575000
0.458333
0.604167
0.266667
1.016667
0.541667
0.541667
0.541667
0.545833
0.550000
0.541667
0.541667
0.537500
0.545833
0.545833
0.541667
0.537500
0.541667
0.545833
0.545833
0.537500
0.541667
0.383333
0.700000
0.541667
0.537500
0.541667
0.537500
0.541667
0.545833
0.545833
0.541667
0.537500
0.716667
0.379167
0.541667
0.545833
0.545833
0.545833
0.545833
0.554167
0.541667
0.545833
0.550000
0.550000
0.545833
0.545833
0.545833
0.545833
0.554167
0.545833
0.545833
0.541667
0.545833
0.554167
0.545833
0.541667
0.537500
0.558333
0.550000
0.545833
0.541667
0.545833
0.545833
0.550000
0.541667
0.545833
0.541667
0.545833
0.550000
0.541667
0.541667
0.545833
0.545833
0.545833
0.545833
0.541667
0.541667
0.545833
0.545833
0.545833
0.545833
0.541667
0.545833
0.550000
0.550000
0.545833
0.545833
0.545833
0.550000
0.545833
0.545833
0.545833
0.545833
0.550000
0.550000
0.545833
0.541667
0.545833
0.545833
0.554167
0.545833
0.545833
0.545833
0.545833
0.554167
0.550000
0.550000
0.545833
0.545833
0.554167
0.550000
0.550000
0.545833
0.550000
0.550000
0.558333
0.545833
0.545833
0.616667
0.587500
0.445833
0.300000
0.500000
0.295833
0.541667
0.550000
0.550000
0.550000
0.545833
0.545833
0.545833
0.545833
0.554167
0.541667
0.545833
0.545833
0.550000
0.550000
0.545833
0.550000
0.545833
0.550000
0.554167
0.545833
0.545833
0.545833
0.550000
0.545833
0.554167
0.545833
0.545833
0.545833
0.550000
0.550000
0.545833
0.545833
0.545833
0.550000
0.545833
0.541667
0.604167
0.491667
0.358333
0.191667
0.541667
0.545833
0.541667
0.545833
0.233333
0.320833
0.295833
0.250000
0.541667
0.545833
0.545833
0.554167
0.545833
0.541667
0.333333
0.212500
0.545833
0.554167
0.329167
0.212500
0.541667
0.545833
0.545833
0.550000
0.533333
0.554167
0.545833
0.258333
0.287500
0.545833
0.545833
0.541667
0.541667
0.370833
0.850000
0.412500
0.541667
0.545833
0.541667
0.545833
0.545833
0.283333
0.258333
0.466667
0.075000
0.545833
0.325000
0.220833
0.550000
0.541667
0.537500
0.545833
0.420833
0.395833
0.275000
0.304167
0.250000
0.533333
0.545833
0.545833
0.550000
0.541667
0.541667
0.541667
0.541667
0.545833
0.550000
0.541667
0.541667
0.541667
0.550000
0.541667
0.545833
0.545833
0.545833
0.550000
0.550000
0.541667
0.541667
0.541667
0.545833
0.545833
0.545833
0.545833
0.541667
0.545833
0.545833
0.545833
0.545833
0.541667
0.545833
0.545833
0.545833
0.550000
0.541667
0.545833
0.545833
0.545833
0.550000
0.545833
0.541667
0.545833
0.550000
0.545833
0.545833
0.545833
0.554167
0.545833
0.545833
0.550000
0.545833
0.662500
0.550000
0.437500
0.545833
0.545833
0.545833
0.550000
0.545833
0.545833
0.541667
0.550000
0.550000
0.545833
0.545833
0.545833
0.554167
0.545833
0.545833
0.487500
0.612500
0.550000
0.333333
0.208333
0.550000
0.545833
0.550000
0.550000
0.545833
0.550000
0.545833
0.550000
0.550000
0.545833
0.545833
0.545833
0.550000
0.545833
0.545833
0.550000
0.545833
0.554167
0.545833
0.620833
0.475000
0.545833
0.554167
0.545833
0.545833
0.545833
0.550000
0.550000
0.550000
0.270833
0.275000
0.545833
0.550000
0.545833
0.545833
0.545833
0.550000
0.554167
0.545833
0.545833
0.545833
0.545833
0.554167
0.545833
0.545833
0.550000
0.545833
0.550000
0.554167
0.550000
0.545833
0.550000
0.554167
0.550000
0.545833
0.550000
0.554167
0.545833
0.545833
0.550000
0.550000
0.550000
0.550000
0.545833
0.545833
0.541667
0.558333
0.516667
0.583333
0.545833
0.550000
0.250000
0.575000
0.270833
0.295833
0.245833
0.545833
0.545833
0.550000
0.550000
0.541667
0.383333
0.220833
0.520833
0.541667
0.545833
0.320833
0.204167
0.375000
0.345833
0.366667
0.554167
0.545833
0.541667
0.545833
0.550000
0.545833
0.541667
0.545833
0.545833
0.545833
0.554167
0.545833
0.545833
0.541667
0.550000
0.550000
0.545833
0.545833
0.550000
0.545833
0.545833
0.550000
0.608333
0.491667
0.550000
0.554167
0.545833
0.545833
0.554167
0.545833
0.550000
0.545833
0.550000
0.550000
0.550000
0.545833
0.550000
0.545833
0.550000
0.554167
0.545833
0.545833
0.550000
0.550000
0.550000
0.545833
0.541667
0.545833
0.550000
0.550000
0.541667
0.545833
0.545833
0.545833
0.550000
0.545833
0.541667
0.545833
0.550000
0.545833
0.541667
0.545833
0.545833
0.545833
0.545833
0.541667
0.545833
0.541667
0.545833
0.545833
0.541667
0.541667
0.545833
0.541667
0.545833
0.541667
0.541667
0.550000
0.541667
0.545833
0.541667
0.541667
0.545833
0.545833
0.541667
0.541667
0.541667
0.733333
0.275000
0.629167
0.437500
0.645833
0.541667
0.545833
0.550000
0.541667
0.545833
0.537500
0.541667
0.545833
0.270833
0.275000
0.700000
0.379167
0.575000
0.233333
0.820833
0.537500
0.541667
0.708333
0.379167
0.541667
0.541667
0.541667
0.541667
0.545833
0.541667
0.595833
0.270833
0.216667
0.541667
0.545833
0.545833
0.541667
0.541667
0.541667
0.541667
0.550000
0.541667
0.537500
0.541667
0.541667
0.545833
0.541667
0.541667
0.541667
0.541667
0.541667
0.545833
0.541667
0.541667
0.545833
0.541667
0.545833
0.545833
0.545833
0.541667
0.345833
0.200000
0.545833
0.550000
0.545833
0.545833
0.545833
0.550000
0.550000
0.545833
0.545833
0.545833
0.545833
0.550000
0.545833
0.545833
0.545833
0.545833
0.550000
0.550000
0.545833
0.541667
0.545833
0.550000
0.545833
0.545833
0.545833
0.550000
0.545833
0.545833
0.545833
0.550000
0.262500
0.283333
0.545833
0.541667
0.545833
0.550000
0.545833
0.733333
0.354167
0.545833
0.545833
0.216667
0.875000
0.229167
0.312500
0.550000
0.241667
0.300000
0.550000
0.541667
0.545833
0.270833
0.279167
0.541667
0.541667
0.541667
0.545833
0.545833
0.545833
0.541667
0.541667
0.545833
0.545833
0.541667
0.545833
0.541667
0.545833
0.550000
0.287500
0.258333
0.545833
0.541667
0.550000
0.550000
0.550000
0.541667
0.545833
0.545833
0.545833
0.550000
0.550000
0.545833
0.545833
0.545833
0.545833
0.545833
0.212500
0.333333
0.550000
0.541667
0.545833
0.550000
0.545833
0.545833
0.541667
0.550000
0.545833
0.545833
0.545833
0.545833
0.550000
0.545833
0.545833
0.545833
0.550000
0.550000
0.550000
0.545833
0.545833
0.550000
0.550000
0.545833
0.545833
0.545833
0.545833
0.666667
0.429167
0.545833
0.545833
0.550000
0.208333
0.333333
0.545833
0.541667
0.545833
0.550000
0.545833
0.541667
0.541667
0.545833
0.550000
0.541667
0.545833
0.629167
0.233333
0.229167
0.237500
0.304167
0.541667
0.541667
0.541667
0.550000
0.541667
0.541667
0.541667
0.545833
0.629167
0.229167
0.095833
0.400000
0.279167
0.541667
0.545833
0.545833
0.541667
0.541667
0.541667
0.545833
0.545833
0.541667
0.541667
0.541667
0.545833
0.541667
0.541667
0.541667
0.537500
0.545833
0.541667
0.541667
0.541667
0.541667
0.541667
0.545833
0.220833
0.320833
0.541667
0.545833
0.541667
0.541667
0.308333
0.445833
0.333333
0.541667
0.266667
0.270833
0.425000
0.470833
0.737500
0.279167
0.266667
0.550000
0.541667
0.541667
0.545833
0.550000
0.541667
0.541667
0.541667
0.545833
0.545833
0.545833
0.541667
0.545833
0.195833
0.345833
0.545833
0.550000
0.541667
0.541667
0.541667
0.545833
0.545833
0.545833
0.541667
0.545833
0.545833
0.545833
0.541667
0.541667
0.550000
0.545833
0.545833
0.541667
0.545833
0.608333
0.487500
0.550000
0.537500
0.545833
0.554167
0.541667
0.545833
0.545833
0.545833
0.554167
0.541667
0.545833
0.545833
0.545833
0.550000
0.541667
0.545833
0.541667
0.545833
0.550000
0.541667
0.541667
0.541667
0.541667
0.550000
0.537500
0.541667
0.541667
0.545833
0.545833
0.541667
0.541667
0.537500
0.545833
0.550000
0.545833
0.537500
0.541667
0.533333
0.554167
0.545833
0.545833
0.541667
0.541667
0.541667
0.545833
0.545833
0.541667
0.541667
0.541667
0.545833
0.541667
0.537500
0.545833
0.541667
0.537500
0.325000
0.229167
0.537500
0.541667
0.541667
0.545833
0.545833
0.545833
0.537500
0.545833
0.541667
0.550000
0.541667
0.545833
0.545833
0.545833
0.545833
0.545833
0.550000
0.541667
0.550000
0.545833
0.545833
0.545833
0.570833
0.650000
0.470833
0.333333
0.708333
0.545833
0.329167
0.216667
0.550000
0.541667
0.545833
0.545833
0.641667
0.208333
0.241667
0.504167
0.404167
0.725000
0.545833
0.545833
0.541667
0.545833
0.545833
0.550000
0.541667
0.541667
0.541667
0.550000
0.550000
0.541667
0.545833
0.541667
0.545833
0.550000
0.541667
0.541667
0.554167
0.541667
0.545833
0.545833
0.537500
0.729167
0.375000
0.291667
0.254167
0.458333
0.404167
0.766667
0.445833
0.633333
0.908333
0.829167
0.437500
0.550000
0.050000
0.845833
0.375000
0.216667
0.345833
0.708333
0.158333
0.429167
0.529167
0.295833
0.375000
0.629167
0.441667
0.658333
0.220833
0.208333
0.537500
0.537500
0.545833
0.541667
0.537500
0.537500
0.537500
0.541667
0.541667
0.370833
0.466667
0.408333
0.366667
0.262500
0.279167
0.545833
0.533333
0.537500
0.537500
0.537500
0.545833
0.533333
0.537500
0.537500
0.537500
0.541667
0.537500
0.537500
0.533333
0.537500
0.537500
0.545833
0.558333
