0.520833
0.520833
0.529167
0.520833
0.525000
0.529167
0.520833
0.520833
0.525000
0.520833
0.525000
0.520833
0.520833
0.525000
0.529167
0.525000
0.520833
0.520833
0.525000
0.525000
0.516667
0.525000
0.529167
0.516667
0.516667
0.516667
0.520833
0.516667
0.520833
0.520833
0.525000
0.520833
0.520833
0.525000
0.525000
0.525000
0.525000
0.525000
0.525000
0.525000
0.525000
0.520833
0.529167
0.525000
0.525000
0.525000
0.525000
0.529167
0.520833
0.525000
0.525000
0.525000
0.520833
0.525000
0.525000
0.525000
0.520833
0.520833
0.525000
0.520833
0.520833
0.520833
0.525000
0.525000
0.520833
0.525000
0.520833
0.520833
0.520833
0.516667
0.525000
0.520833
0.520833
0.516667
0.525000
0.520833
0.516667
0.520833
0.520833
0.404167
0.600000
0.529167
0.520833
0.525000
0.525000
0.520833
0.520833
0.520833
0.520833
0.529167
0.520833
0.400000
0.604167
0.529167
0.525000
0.525000
0.520833
0.520833
0.525000
0.520833
0.520833
0.525000
0.529167
0.525000
0.520833
0.520833
0.520833
0.525000
0.525000
0.520833
0.525000
0.525000
0.520833
0.520833
0.520833
0.525000
0.520833
0.520833
0.525000
0.520833
0.520833
0.520833
0.520833
0.529167
0.525000
0.520833
0.520833
0.520833
0.525000
0.525000
0.520833
0.520833
0.395833
0.612500
0.537500
0.520833
0.520833
0.525000
0.520833
0.520833
0.525000
0.520833
0.525000
0.529167
0.520833
0.520833
0.520833
0.520833
0.525000
0.525000
0.520833
0.520833
0.520833
0.520833
0.520833
0.525000
0.520833
0.520833
0.525000
0.520833
0.525000
0.520833
0.525000
0.529167
0.525000
0.520833
0.520833
0.520833
0.520833
0.525000
0.520833
0.525000
0.525000
0.520833
0.525000
0.420833
0.595833
0.529167
0.525000
0.525000
0.520833
0.520833
0.525000
0.525000
0.525000
0.520833
0.525000
0.520833
0.525000
0.525000
0.525000
0.520833
0.520833
0.525000
0.520833
0.525000
0.520833
0.520833
0.525000
0.520833
0.520833
0.520833
0.520833
0.525000
0.525000
0.520833
0.520833
0.525000
0.520833
0.520833
0.525000
0.525000
0.525000
0.520833
0.525000
0.529167
0.525000
0.520833
0.520833
0.525000
0.525000
0.525000
0.525000
0.525000
0.529167
0.525000
0.529167
0.525000
0.520833
0.525000
0.533333
0.525000
0.525000
0.525000
0.529167
0.525000
0.529167
0.520833
0.408333
0.608333
0.533333
0.529167
0.525000
0.525000
0.533333
0.525000
0.525000
0.525000
0.520833
0.529167
0.529167
0.525000
0.520833
0.525000
0.525000
0.520833
0.529167
0.525000
0.520833
0.525000
0.529167
0.525000
0.520833
0.525000
0.525000
0.525000
0.525000
0.520833
0.529167
0.533333
0.525000
0.520833
0.525000
0.525000
0.520833
0.529167
0.520833
0.525000
0.529167
0.525000
0.520833
0.525000
0.525000
0.525000
0.520833
0.529167
0.529167
0.529167
0.525000
0.520833
0.525000
0.529167
0.529167
0.525000
0.525000
0.520833
0.525000
0.525000
0.529167
0.520833
0.529167
0.525000
0.525000
0.529167
0.520833
0.529167
0.529167
0.316667
0.262500
0.783333
0.562500
0.545833
0.533333
0.525000
0.525000
0.529167
0.525000
0.529167
0.525000
0.529167
0.529167
0.529167
0.529167
0.529167
0.529167
0.529167
0.529167
0.529167
0.533333
0.529167
0.529167
0.529167
0.533333
0.529167
0.529167
0.529167
0.533333
0.529167
0.525000
0.529167
0.529167
0.529167
0.525000
0.529167
0.525000
0.529167
0.529167
0.525000
0.529167
0.529167
0.529167
0.525000
0.529167
0.529167
0.525000
0.529167
0.525000
0.525000
0.525000
0.529167
0.525000
0.525000
0.525000
0.525000
0.525000
0.525000
0.525000
0.529167
0.525000
0.525000
0.525000
0.525000
0.529167
0.525000
0.525000
0.525000
0.525000
0.529167
0.300000
0.608333
0.437500
0.625000
0.537500
0.525000
0.525000
0.533333
0.529167
0.525000
0.525000
0.525000
0.525000
0.525000
0.529167
0.525000
0.525000
0.525000
0.529167
0.525000
0.454167
0.579167
0.537500
0.525000
0.525000
0.529167
0.525000
0.529167
0.525000
0.529167
0.529167
0.525000
0.533333
0.529167
0.525000
0.525000
0.525000
0.533333
0.525000
0.525000
0.525000
0.529167
0.529167
0.525000
0.525000
0.525000
0.525000
0.529167
0.525000
0.525000
0.525000
0.529167
0.533333
0.525000
0.525000
0.525000
0.525000
0.525000
0.520833
0.525000
0.525000
0.525000
0.529167
0.525000
0.525000
0.525000
0.529167
0.525000
0.525000
0.525000
0.533333
0.529167
0.525000
0.525000
0.525000
0.525000
0.529167
0.529167
0.400000
0.612500
0.537500
0.525000
0.420833
0.608333
0.533333
0.529167
0.437500
0.591667
0.537500
0.525000
0.529167
0.537500
0.529167
0.529167
0.529167
0.529167
0.529167
0.533333
0.533333
0.529167
0.529167
0.529167
0.525000
0.529167
0.533333
0.529167
0.529167
0.529167
0.529167
0.533333
0.529167
0.529167
0.533333
0.533333
0.529167
0.525000
0.533333
0.533333
0.529167
0.529167
0.525000
0.529167
0.529167
0.529167
0.529167
0.537500
0.529167
0.529167
0.525000
0.529167
0.533333
0.529167
0.529167
0.537500
0.529167
0.533333
0.529167
0.537500
0.529167
0.529167
0.529167
0.529167
0.537500
0.529167
0.529167
0.529167
0.529167
0.533333
0.529167
0.529167
0.537500
0.533333
0.529167
0.529167
0.529167
0.529167
0.529167
0.529167
0.529167
0.537500
0.529167
0.525000
0.529167
0.529167
0.529167
0.533333
0.529167
0.533333
0.537500
0.529167
0.529167
0.529167
0.529167
0.529167
0.529167
0.533333
0.525000
0.529167
0.537500
0.525000
0.529167
0.529167
0.529167
0.529167
0.529167
0.533333
0.529167
0.537500
0.529167
0.525000
0.525000
0.525000
0.525000
0.529167
0.525000
0.533333
0.529167
0.529167
0.533333
0.529167
0.533333
0.533333
0.533333
0.529167
0.533333
0.533333
0.537500
0.533333
0.533333
0.533333
0.533333
0.416667
0.616667
0.541667
0.533333
0.533333
0.533333
0.529167
0.533333
0.529167
0.533333
0.529167
0.533333
0.529167
0.529167
0.529167
0.529167
0.529167
0.529167
0.525000
0.529167
0.529167
0.525000
0.529167
0.529167
0.529167
0.529167
0.529167
0.529167
0.529167
0.529167
0.529167
0.404167
0.608333
0.541667
0.529167
0.525000
0.529167
0.529167
0.525000
0.529167
0.529167
0.529167
0.529167
0.529167
0.529167
0.533333
0.529167
0.529167
0.533333
0.525000
0.537500
0.529167
0.529167
0.529167
0.525000
0.529167
0.533333
0.529167
0.529167
0.529167
0.525000
0.529167
0.529167
0.529167
0.529167
0.537500
0.529167
0.525000
0.529167
0.525000
0.529167
0.529167
0.529167
0.525000
0.525000
0.529167
0.533333
0.529167
0.525000
0.525000
0.525000
0.529167
0.525000
0.529167
0.529167
0.529167
0.533333
0.529167
0.529167
0.525000
0.529167
0.529167
0.529167
0.533333
0.533333
0.529167
0.529167
0.529167
0.529167
0.533333
0.529167
0.537500
0.529167
0.529167
0.533333
0.529167
0.533333
0.529167
0.529167
0.529167
0.533333
0.412500
0.616667
0.537500
0.529167
0.529167
0.529167
0.533333
0.529167
0.529167
0.537500
0.533333
0.529167
0.529167
0.529167
0.529167
0.529167
0.533333
0.525000
0.533333
0.533333
0.529167
0.529167
0.529167
0.529167
0.525000
0.533333
0.533333
0.529167
0.533333
0.529167
0.533333
0.529167
0.533333
0.529167
0.537500
0.533333
0.533333
0.529167
0.533333
0.529167
0.529167
0.533333
0.408333
0.612500
0.541667
0.533333
0.529167
0.529167
0.525000
0.529167
0.529167
0.533333
0.529167
0.533333
0.529167
0.529167
0.533333
0.533333
0.533333
0.529167
0.529167
0.529167
0.529167
0.529167
0.529167
0.533333
0.529167
0.533333
0.533333
0.533333
0.529167
0.533333
0.529167
0.537500
0.537500
0.533333
0.529167
0.533333
0.400000
0.620833
0.541667
0.529167
0.537500
0.529167
0.533333
0.529167
0.529167
0.533333
0.533333
0.529167
0.533333
0.529167
0.533333
0.529167
0.533333
0.412500
0.620833
0.541667
0.533333
0.529167
0.533333
0.533333
0.529167
0.533333
0.537500
0.533333
0.529167
0.533333
0.529167
0.529167
0.533333
0.533333
0.529167
0.533333
0.533333
0.529167
0.533333
0.533333
0.533333
0.529167
0.529167
0.537500
0.533333
0.529167
0.529167
0.525000
0.529167
0.533333
0.529167
0.533333
0.529167
0.404167
0.625000
0.541667
0.537500
0.537500
0.533333
0.537500
0.533333
0.537500
0.537500
0.537500
0.533333
0.533333
0.537500
0.533333
0.537500
0.533333
0.533333
0.533333
0.533333
0.533333
0.529167
0.533333
0.533333
0.529167
0.533333
0.533333
0.533333
0.533333
0.529167
0.537500
0.529167
0.533333
0.541667
0.500000
0.562500
0.533333
0.533333
0.533333
0.533333
0.529167
0.537500
0.529167
0.533333
0.412500
0.620833
0.537500
0.308333
0.620833
0.570833
0.550000
0.533333
0.533333
0.529167
0.533333
0.533333
0.533333
0.529167
0.537500
0.529167
0.533333
0.533333
0.533333
0.529167
0.533333
0.533333
0.533333
0.529167
0.533333
0.537500
0.537500
0.533333
0.529167
0.533333
0.537500
0.533333
0.533333
0.529167
0.533333
0.529167
0.416667
0.612500
0.537500
0.533333
0.533333
0.529167
0.533333
0.533333
0.529167
0.533333
0.533333
0.537500
0.529167
0.533333
0.533333
0.533333
0.533333
0.533333
0.533333
0.533333
0.529167
0.533333
0.537500
0.533333
0.533333
0.533333
0.533333
0.537500
0.529167
0.537500
0.537500
0.537500
0.533333
0.533333
0.533333
0.537500
0.537500
0.533333
0.533333
0.529167
0.537500
0.537500
0.533333
0.533333
0.533333
0.529167
0.537500
0.537500
0.533333
0.533333
0.533333
0.537500
0.537500
0.537500
0.533333
0.450000
0.595833
0.541667
0.533333
0.533333
0.533333
0.533333
0.529167
0.537500
0.533333
0.429167
0.612500
0.541667
0.533333
0.425000
0.616667
0.541667
0.529167
0.529167
0.529167
0.533333
0.529167
0.529167
0.533333
0.533333
0.529167
0.404167
0.616667
0.533333
0.529167
0.433333
0.600000
0.533333
0.533333
0.441667
0.591667
0.537500
0.529167
0.425000
0.600000
0.400000
0.645833
0.541667
0.525000
0.525000
0.529167
0.525000
0.529167
0.529167
0.529167
0.529167
0.395833
0.625000
0.541667
0.533333
0.441667
0.600000
0.537500
0.533333
0.533333
0.533333
0.537500
0.533333
0.533333
0.533333
0.533333
0.537500
0.529167
0.533333
0.537500
0.537500
0.416667
0.612500
0.541667
0.533333
0.420833
0.612500
0.541667
0.533333
0.454167
0.591667
0.533333
0.537500
0.450000
0.595833
0.537500
0.533333
0.437500
0.604167
0.541667
0.529167
0.429167
0.612500
0.537500
0.533333
0.416667
0.612500
0.541667
0.533333
0.437500
0.600000
0.537500
0.533333
0.408333
0.620833
0.541667
0.541667
0.416667
0.612500
0.537500
0.533333
0.533333
0.533333
0.529167
0.533333
0.537500
0.533333
0.529167
0.529167
0.533333
0.529167
0.533333
0.533333
0.533333
0.533333
0.529167
0.533333
0.529167
0.533333
0.533333
0.529167
0.533333
0.537500
0.533333
0.533333
0.533333
0.541667
0.533333
0.533333
0.529167
0.533333
0.533333
0.533333
0.533333
0.537500
0.529167
0.533333
0.533333
0.533333
0.533333
0.533333
0.529167
0.533333
0.533333
0.537500
0.529167
0.533333
0.529167
0.533333
0.533333
0.529167
0.533333
0.533333
0.533333
0.533333
0.533333
0.533333
0.541667
0.533333
0.533333
0.333333
0.666667
0.554167
0.537500
0.533333
0.529167
0.533333
0.529167
0.533333
0.529167
0.537500
0.533333
0.529167
0.533333
0.533333
0.533333
0.529167
0.533333
0.537500
0.537500
0.529167
0.533333
0.537500
0.533333
0.533333
0.529167
0.404167
0.625000
0.541667
0.529167
0.533333
0.529167
0.529167
0.533333
0.529167
0.533333
0.537500
0.529167
0.533333
0.529167
0.533333
0.533333
0.533333
0.529167
0.537500
0.541667
