0.337500
0.562500
0.570833
0.562500
0.558333
0.558333
0.558333
0.562500
0.566667
0.558333
0.554167
0.558333
0.558333
0.562500
0.562500
0.558333
0.558333
0.554167
0.558333
0.562500
0.558333
0.558333
0.558333
0.562500
0.562500
0.558333
0.558333
0.562500
0.558333
0.566667
0.562500
0.558333
0.558333
0.562500
0.566667
0.562500
0.558333
0.562500
0.558333
0.566667
0.566667
0.562500
0.250000
0.308333
0.566667
0.562500
0.566667
0.562500
0.562500
0.562500
0.562500
0.566667
0.570833
0.562500
0.558333
0.566667
0.670833
0.458333
0.562500
0.562500
0.566667
0.570833
0.566667
0.245833
0.320833
0.570833
0.570833
0.575000
0.570833
0.562500
0.275000
0.291667
0.566667
0.566667
0.575000
0.562500
0.562500
0.562500
0.566667
0.570833
0.562500
0.562500
0.562500
0.562500
0.566667
0.562500
0.450000
0.645833
0.570833
0.566667
0.566667
0.562500
0.558333
0.558333
0.558333
0.566667
0.562500
0.558333
0.558333
0.554167
0.562500
0.562500
0.558333
0.558333
0.554167
0.558333
0.562500
0.562500
0.554167
0.558333
0.554167
0.562500
0.562500
0.554167
0.554167
0.554167
0.558333
0.562500
0.554167
0.554167
0.554167
0.554167
0.558333
0.554167
0.554167
0.554167
0.554167
0.558333
0.558333
0.554167
0.558333
0.550000
0.554167
0.558333
0.562500
0.554167
0.554167
0.550000
0.325000
0.229167
0.325000
0.787500
0.554167
0.558333
0.720833
0.404167
0.554167
0.558333
0.558333
0.562500
0.325000
0.237500
0.308333
0.433333
0.383333
0.558333
0.566667
0.566667
0.558333
0.562500
0.562500
0.566667
0.570833
0.570833
0.566667
0.562500
0.566667
0.566667
0.475000
0.666667
0.566667
0.566667
0.566667
0.570833
0.566667
0.566667
0.512500
0.700000
0.408333
0.437500
0.216667
0.566667
0.566667
0.558333
0.566667
0.570833
0.566667
0.562500
0.562500
0.570833
0.562500
0.562500
0.558333
0.562500
0.570833
0.558333
0.558333
0.558333
0.562500
0.562500
0.554167
0.558333
0.558333
0.562500
0.558333
0.554167
0.554167
0.554167
0.566667
0.554167
0.554167
0.554167
0.554167
0.562500
0.554167
0.554167
0.554167
0.558333
0.558333
0.558333
0.554167
0.554167
0.554167
0.562500
0.558333
0.554167
0.554167
0.554167
0.558333
0.562500
0.554167
0.445833
0.662500
0.558333
0.558333
0.558333
0.550000
0.558333
0.554167
0.562500
0.550000
0.558333
0.550000
0.554167
0.341667
0.775000
0.225000
0.329167
0.554167
0.329167
0.225000
0.558333
0.562500
0.554167
0.554167
0.554167
0.558333
0.562500
0.554167
0.558333
0.554167
0.554167
0.558333
0.558333
0.562500
0.558333
0.550000
0.558333
0.562500
0.437500
0.679167
0.562500
0.562500
0.566667
0.562500
0.558333
0.558333
0.566667
0.566667
0.562500
0.558333
0.558333
0.562500
0.566667
0.562500
0.558333
0.554167
0.558333
0.566667
0.558333
0.558333
0.554167
0.558333
0.562500
0.554167
0.554167
0.554167
0.558333
0.566667
0.550000
0.554167
0.554167
0.554167
0.562500
0.554167
0.554167
0.550000
0.558333
0.558333
0.554167
0.554167
0.554167
0.558333
0.554167
0.312500
0.812500
0.566667
0.566667
0.558333
0.558333
0.558333
0.566667
0.566667
0.558333
0.558333
0.558333
0.562500
0.562500
0.566667
0.558333
0.554167
0.562500
0.562500
0.629167
0.491667
0.554167
0.554167
0.562500
0.562500
0.558333
0.554167
0.554167
0.558333
0.558333
0.562500
0.554167
0.554167
0.554167
0.554167
0.558333
0.562500
0.554167
0.558333
0.554167
0.262500
0.291667
0.554167
0.625000
0.491667
0.558333
0.558333
0.554167
0.554167
0.558333
0.558333
0.558333
0.287500
0.275000
0.566667
0.562500
0.562500
0.562500
0.566667
0.566667
0.575000
0.275000
0.854167
0.566667
0.200000
0.941667
0.562500
0.562500
0.566667
0.570833
0.566667
0.562500
0.566667
0.570833
0.333333
0.233333
0.562500
0.558333
0.566667
0.566667
0.562500
0.562500
0.558333
0.562500
0.566667
0.562500
0.558333
0.554167
0.562500
0.562500
0.562500
0.558333
0.554167
0.554167
0.562500
0.562500
0.558333
0.554167
0.554167
0.558333
0.837500
0.283333
0.554167
0.554167
0.558333
0.558333
0.562500
0.200000
0.354167
0.679167
0.995833
0.554167
0.550000
0.500000
0.625000
0.312500
0.245833
0.554167
0.325000
0.233333
0.562500
0.416667
0.687500
0.437500
0.220833
0.454167
0.558333
0.562500
0.554167
0.279167
0.275000
0.554167
0.558333
0.558333
0.550000
0.554167
0.558333
0.650000
0.466667
0.554167
0.554167
0.558333
0.558333
0.554167
0.554167
0.558333
0.554167
0.558333
0.558333
0.562500
0.558333
0.558333
0.558333
0.558333
0.562500
0.562500
0.562500
0.312500
0.445833
0.362500
0.562500
0.345833
0.787500
0.562500
0.562500
0.566667
0.570833
0.562500
0.562500
0.562500
0.570833
0.570833
0.570833
0.558333
0.562500
0.562500
0.566667
0.570833
0.558333
0.562500
0.562500
0.566667
0.562500
0.558333
0.558333
0.558333
0.566667
0.558333
0.554167
0.558333
0.558333
0.562500
0.558333
0.554167
0.320833
0.237500
0.558333
0.312500
0.245833
0.558333
0.558333
0.562500
0.554167
0.554167
0.308333
0.250000
0.475000
0.637500
0.562500
0.554167
0.600000
0.279167
0.237500
0.558333
0.558333
0.558333
0.554167
0.475000
0.650000
0.558333
0.237500
0.675000
0.316667
0.495833
0.520833
0.558333
0.554167
0.566667
0.562500
0.558333
0.558333
0.562500
0.566667
0.558333
0.558333
0.554167
0.566667
0.562500
0.554167
0.554167
0.554167
0.558333
0.566667
0.558333
0.554167
0.558333
0.558333
0.562500
0.562500
0.554167
0.558333
0.554167
0.562500
0.562500
0.558333
0.558333
0.554167
0.558333
0.458333
0.658333
0.562500
0.304167
0.258333
0.750000
0.458333
0.483333
0.570833
0.562500
0.558333
0.566667
0.566667
0.566667
0.562500
0.558333
0.562500
0.570833
0.566667
0.558333
0.558333
0.562500
0.566667
0.566667
0.558333
0.558333
0.558333
0.566667
0.562500
0.558333
0.558333
0.558333
0.562500
0.566667
0.558333
0.558333
0.558333
0.562500
0.562500
0.558333
0.558333
0.558333
0.562500
0.566667
0.566667
0.558333
0.558333
0.558333
0.558333
0.570833
0.562500
0.558333
0.566667
0.550000
0.566667
0.566667
0.566667
0.575000
0.558333
0.562500
0.562500
0.566667
0.570833
0.558333
0.562500
0.558333
0.566667
0.570833
0.558333
0.558333
0.558333
0.558333
0.566667
0.566667
0.554167
0.558333
0.558333
0.562500
0.562500
0.558333
0.558333
0.554167
0.562500
0.562500
0.554167
0.554167
0.558333
0.558333
0.558333
0.437500
0.658333
0.570833
0.558333
0.558333
0.558333
0.566667
0.554167
0.558333
0.558333
0.562500
0.441667
0.645833
0.570833
0.558333
0.562500
0.566667
0.558333
0.441667
0.200000
0.441667
0.575000
0.608333
0.512500
0.558333
0.558333
0.554167
0.304167
0.579167
0.241667
0.558333
0.558333
0.554167
0.566667
0.554167
0.558333
0.558333
0.554167
0.562500
0.562500
0.566667
0.558333
0.558333
0.562500
0.554167
0.354167
0.608333
0.716667
0.570833
0.720833
0.395833
0.562500
0.566667
0.558333
0.558333
0.562500
0.566667
0.570833
0.204167
0.354167
0.220833
0.341667
0.566667
0.570833
0.570833
0.562500
0.562500
0.566667
0.570833
0.570833
0.566667
0.562500
0.562500
0.570833
0.570833
0.566667
0.562500
0.562500
0.566667
0.566667
0.570833
0.562500
0.562500
0.562500
0.562500
0.570833
0.558333
0.558333
0.566667
0.562500
0.566667
0.558333
0.558333
0.558333
0.558333
0.441667
0.645833
0.570833
0.295833
0.262500
0.487500
0.075000
0.558333
0.512500
0.216667
0.395833
0.458333
0.654167
0.562500
0.345833
0.212500
0.441667
0.641667
0.566667
0.533333
0.583333
0.562500
0.558333
0.562500
0.562500
0.558333
0.558333
0.558333
0.558333
0.566667
0.562500
0.558333
0.562500
0.291667
0.270833
0.566667
0.562500
0.570833
0.570833
0.566667
0.562500
0.566667
0.570833
0.570833
0.562500
0.562500
0.562500
0.570833
0.570833
0.562500
0.562500
0.562500
0.566667
0.570833
0.558333
0.562500
0.558333
0.566667
0.562500
0.558333
0.558333
0.558333
0.562500
0.562500
0.558333
0.558333
0.562500
0.558333
0.437500
0.691667
0.558333
0.441667
0.525000
0.466667
0.254167
0.562500
0.670833
0.450000
0.229167
0.329167
0.566667
0.558333
0.550000
0.566667
0.562500
0.562500
0.558333
0.558333
0.562500
0.241667
0.883333
0.441667
0.662500
0.416667
0.733333
0.566667
0.558333
0.566667
0.570833
0.570833
0.558333
0.562500
0.562500
0.570833
0.570833
0.558333
0.558333
0.562500
0.566667
0.562500
0.558333
0.562500
0.566667
0.570833
0.558333
0.558333
0.562500
0.562500
0.570833
0.558333
0.558333
0.562500
0.558333
0.566667
0.558333
0.562500
0.558333
0.562500
0.562500
0.566667
0.558333
0.562500
0.566667
0.562500
0.566667
0.445833
0.654167
0.579167
0.570833
0.570833
0.570833
0.558333
0.570833
0.570833
0.575000
0.575000
0.562500
0.566667
0.570833
0.575000
0.566667
0.566667
0.566667
0.566667
0.575000
0.566667
0.562500
0.562500
0.566667
0.570833
0.558333
0.562500
0.558333
0.562500
0.570833
0.558333
0.558333
0.558333
0.562500
0.566667
0.562500
0.558333
0.558333
0.562500
0.566667
0.562500
0.558333
0.558333
0.562500
0.562500
0.566667
0.558333
0.554167
0.558333
0.562500
0.562500
0.554167
0.554167
0.558333
0.562500
0.562500
0.554167
0.554167
0.558333
0.562500
0.562500
0.558333
0.554167
0.558333
0.562500
0.562500
0.562500
0.558333
0.562500
0.562500
0.558333
0.562500
0.562500
0.566667
0.562500
0.558333
0.333333
0.229167
0.566667
0.566667
0.558333
0.562500
0.558333
0.562500
0.562500
0.566667
0.558333
0.558333
0.562500
0.558333
0.562500
0.566667
0.562500
0.562500
0.562500
0.566667
0.566667
0.562500
0.562500
0.566667
0.566667
0.737500
0.383333
0.562500
0.562500
0.570833
0.566667
0.558333
0.562500
0.562500
0.570833
0.562500
0.558333
0.562500
0.562500
0.570833
0.562500
0.558333
0.562500
0.562500
0.570833
0.558333
0.558333
0.562500
0.562500
0.562500
0.562500
0.558333
0.558333
0.562500
0.566667
0.558333
0.558333
0.554167
0.562500
0.566667
0.554167
0.558333
0.554167
0.870833
0.245833
0.562500
0.558333
0.558333
0.554167
0.554167
0.558333
0.566667
0.554167
0.554167
0.554167
0.558333
0.562500
0.554167
0.554167
0.554167
0.208333
0.441667
0.462500
0.554167
0.558333
0.562500
0.558333
0.562500
0.362500
0.195833
0.554167
0.725000
0.391667
0.562500
0.566667
0.558333
0.558333
0.562500
0.558333
0.566667
0.562500
0.558333
0.562500
0.562500
0.562500
0.566667
0.570833
0.570833
0.562500
0.562500
0.562500
0.566667
0.575000
0.566667
0.558333
0.562500
0.562500
0.570833
0.566667
0.562500
0.558333
0.562500
0.566667
0.645833
0.470833
0.312500
0.245833
0.558333
0.562500
0.566667
0.558333
0.558333
0.554167
0.558333
0.562500
0.566667
0.554167
0.558333
0.554167
0.562500
0.562500
0.554167
0.558333
0.558333
0.558333
0.562500
0.562500
0.566667
0.558333
0.558333
0.562500
0.562500
0.566667
0.566667
0.562500
0.558333
0.562500
0.562500
0.570833
0.558333
0.445833
0.679167
0.566667
0.570833
0.566667
0.562500
0.570833
0.220833
0.350000
0.566667
0.566667
0.566667
0.566667
0.575000
0.441667
0.658333
0.641667
0.520833
0.570833
0.566667
0.575000
0.575000
0.570833
0.566667
0.566667
