0.558333
0.541667
0.554167
0.545833
0.554167
0.541667
0.558333
0.545833
0.554167
0.545833
0.558333
0.550000
0.550000
0.558333
0.550000
0.554167
0.554167
0.545833
0.558333
0.554167
0.554167
0.554167
0.554167
0.550000
0.558333
0.550000
0.562500
0.550000
0.558333
0.545833
0.566667
0.562500
0.541667
0.558333
0.554167
0.558333
0.545833
0.354167
0.208333
0.558333
0.554167
0.554167
0.554167
0.550000
0.558333
0.550000
0.550000
0.558333
0.554167
0.554167
0.562500
0.550000
0.562500
0.554167
0.554167
0.554167
0.566667
0.550000
0.558333
0.550000
0.566667
0.550000
0.554167
0.562500
0.558333
0.566667
0.566667
0.562500
0.550000
0.562500
0.554167
0.550000
0.562500
0.545833
0.554167
0.550000
0.554167
0.570833
0.566667
0.337500
0.770833
0.545833
0.550000
0.554167
0.566667
0.562500
0.275000
0.854167
0.558333
0.562500
0.558333
0.562500
0.562500
0.558333
0.566667
0.570833
0.558333
0.558333
0.562500
0.570833
0.554167
0.566667
0.554167
0.562500
0.570833
0.554167
0.570833
0.550000
0.566667
0.558333
0.562500
0.554167
0.566667
0.562500
0.558333
0.562500
0.562500
0.558333
0.562500
0.562500
0.554167
0.566667
0.550000
0.562500
0.554167
0.562500
0.554167
0.558333
0.562500
0.550000
0.562500
0.541667
0.558333
0.550000
0.554167
0.554167
0.545833
0.554167
0.541667
0.554167
0.545833
0.550000
0.550000
0.545833
0.554167
0.545833
0.554167
0.550000
0.554167
0.541667
0.533333
0.550000
0.541667
0.550000
0.545833
0.545833
0.545833
0.541667
0.550000
0.541667
0.550000
0.541667
0.537500
0.654167
0.450000
0.266667
0.279167
0.545833
0.637500
0.158333
0.287500
0.545833
0.466667
0.070833
0.541667
0.541667
0.537500
0.541667
0.537500
0.541667
0.537500
0.308333
0.216667
0.537500
0.541667
0.541667
0.541667
0.541667
0.533333
0.545833
0.537500
0.550000
0.533333
0.541667
0.537500
0.550000
0.545833
0.541667
0.550000
0.529167
0.545833
0.550000
0.545833
0.541667
0.550000
0.550000
0.541667
0.550000
0.545833
0.545833
0.550000
0.541667
0.554167
0.533333
0.554167
0.541667
0.550000
0.545833
0.545833
0.554167
0.545833
0.554167
0.550000
0.545833
0.558333
0.537500
0.558333
0.554167
0.550000
0.550000
0.554167
0.550000
0.545833
0.545833
0.554167
0.558333
0.554167
0.554167
0.562500
0.537500
0.554167
0.554167
0.550000
0.558333
0.554167
0.554167
0.554167
0.558333
0.554167
0.550000
0.558333
0.554167
0.554167
0.554167
0.541667
0.545833
0.554167
0.554167
0.558333
0.545833
0.558333
0.545833
0.554167
0.545833
0.558333
0.545833
0.558333
0.550000
0.554167
0.545833
0.558333
0.545833
0.558333
0.550000
0.558333
0.554167
0.554167
0.550000
0.558333
0.554167
0.558333
0.554167
0.554167
0.545833
0.562500
0.550000
0.562500
0.545833
0.558333
0.558333
0.550000
0.558333
0.545833
0.558333
0.545833
0.558333
0.550000
0.554167
0.558333
0.541667
0.562500
0.545833
0.554167
0.558333
0.545833
0.558333
0.550000
0.558333
0.554167
0.554167
0.558333
0.550000
0.562500
0.550000
0.562500
0.550000
0.562500
0.545833
0.562500
0.554167
0.558333
0.558333
0.545833
0.558333
0.554167
0.550000
0.562500
0.545833
0.558333
0.550000
0.558333
0.550000
0.562500
0.554167
0.537500
0.550000
0.554167
0.558333
0.550000
0.566667
0.541667
0.558333
0.554167
0.558333
0.550000
0.554167
0.558333
0.545833
0.558333
0.554167
0.554167
0.550000
0.562500
0.545833
0.562500
0.550000
0.558333
0.554167
0.554167
0.558333
0.550000
0.558333
0.558333
0.550000
0.558333
0.554167
0.554167
0.554167
0.558333
0.545833
0.562500
0.545833
0.558333
0.554167
0.545833
0.554167
0.545833
0.550000
0.558333
0.541667
0.554167
0.554167
0.545833
0.554167
0.554167
0.545833
0.550000
0.554167
0.545833
0.554167
0.554167
0.545833
0.554167
0.545833
0.554167
0.558333
0.541667
0.558333
0.545833
0.558333
0.545833
0.558333
0.550000
0.558333
0.545833
0.562500
0.554167
0.550000
0.562500
0.545833
0.562500
0.558333
0.550000
0.562500
0.550000
0.558333
0.550000
0.562500
0.554167
0.562500
0.550000
0.562500
0.554167
0.558333
0.558333
0.550000
0.558333
0.558333
0.554167
0.558333
0.554167
0.554167
0.558333
0.558333
0.554167
0.558333
0.554167
0.558333
0.558333
0.550000
0.562500
0.545833
0.562500
0.558333
0.545833
0.558333
0.545833
0.562500
0.550000
0.558333
0.558333
0.558333
0.554167
0.562500
0.554167
0.562500
0.562500
0.550000
0.562500
0.562500
0.554167
0.566667
0.554167
0.566667
0.554167
0.566667
0.558333
0.554167
0.566667
0.566667
0.554167
0.566667
0.562500
0.550000
0.562500
0.550000
0.566667
0.558333
0.554167
0.566667
0.554167
0.566667
0.562500
0.558333
0.570833
0.550000
0.566667
0.566667
0.550000
0.566667
0.562500
0.554167
0.566667
0.562500
0.554167
0.566667
0.562500
0.554167
0.570833
0.554167
0.562500
0.566667
0.550000
0.566667
0.554167
0.562500
0.558333
0.554167
0.562500
0.550000
0.562500
0.550000
0.562500
0.550000
0.562500
0.558333
0.545833
0.562500
0.545833
0.562500
0.554167
0.554167
0.554167
0.550000
0.558333
0.304167
0.245833
0.558333
0.545833
0.554167
0.537500
0.554167
0.537500
0.554167
0.545833
0.550000
0.554167
0.541667
0.550000
0.545833
0.554167
0.545833
0.550000
0.550000
0.545833
0.554167
0.541667
0.550000
0.550000
0.545833
0.554167
0.541667
0.554167
0.550000
0.550000
0.550000
0.545833
0.554167
0.541667
0.554167
0.550000
0.545833
0.558333
0.545833
0.554167
0.550000
0.558333
0.554167
0.550000
0.558333
0.545833
0.558333
0.554167
0.554167
0.554167
0.558333
0.550000
0.554167
0.558333
0.545833
0.562500
0.558333
0.550000
0.562500
0.550000
0.558333
0.558333
0.550000
0.558333
0.558333
0.554167
0.562500
0.545833
0.562500
0.550000
0.562500
0.558333
0.550000
0.562500
0.554167
0.554167
0.562500
0.545833
0.558333
0.562500
0.550000
0.562500
0.562500
0.554167
0.562500
0.550000
0.562500
0.562500
0.554167
0.558333
0.558333
0.566667
0.550000
0.566667
0.554167
0.566667
0.562500
0.558333
0.558333
0.562500
0.562500
0.550000
0.566667
0.554167
0.562500
0.554167
0.566667
0.545833
0.562500
0.550000
0.562500
0.554167
0.558333
0.562500
0.550000
0.566667
0.566667
0.550000
0.562500
0.554167
0.566667
0.562500
0.550000
0.562500
0.554167
0.566667
0.562500
0.566667
0.545833
0.566667
0.558333
0.566667
0.562500
0.562500
0.558333
0.545833
0.562500
0.545833
0.566667
0.554167
0.566667
0.554167
0.570833
0.558333
0.570833
0.558333
0.570833
0.570833
0.558333
0.575000
0.558333
0.570833
0.570833
0.570833
0.570833
0.562500
0.575000
0.558333
0.570833
0.558333
0.570833
0.558333
0.562500
0.570833
0.550000
0.566667
0.562500
0.558333
0.570833
0.554167
0.570833
0.554167
0.562500
0.570833
0.550000
0.566667
0.558333
0.566667
0.562500
0.562500
0.566667
0.554167
0.566667
0.554167
0.566667
0.562500
0.554167
0.562500
0.558333
0.566667
0.554167
0.566667
0.554167
0.558333
0.566667
0.554167
0.562500
0.558333
0.562500
0.558333
0.554167
0.562500
0.558333
0.554167
0.566667
0.550000
0.566667
0.541667
0.579167
0.554167
0.558333
0.550000
0.558333
0.562500
0.545833
0.562500
0.558333
0.550000
0.566667
0.554167
0.562500
0.550000
0.562500
0.562500
0.554167
0.554167
0.566667
0.550000
0.566667
0.554167
0.558333
0.562500
0.554167
0.566667
0.550000
0.566667
0.554167
0.558333
0.558333
0.558333
0.554167
0.558333
0.554167
0.554167
0.554167
0.558333
0.550000
0.562500
0.550000
0.558333
0.562500
0.550000
0.554167
0.570833
0.550000
0.566667
0.554167
0.562500
0.554167
0.566667
0.558333
0.566667
0.562500
0.554167
0.558333
0.570833
0.566667
0.562500
0.566667
0.558333
0.570833
0.562500
0.575000
0.575000
0.575000
0.570833
0.562500
0.570833
0.562500
0.579167
0.566667
0.570833
0.583333
0.566667
0.575000
0.579167
0.579167
0.587500
0.579167
0.583333
0.583333
0.587500
0.587500
0.587500
0.591667
0.591667
0.587500
0.595833
0.587500
0.591667
0.591667
0.591667
0.591667
0.591667
0.583333
0.591667
0.587500
0.583333
0.583333
0.583333
0.575000
0.583333
0.579167
0.575000
0.579167
0.570833
0.579167
0.579167
0.570833
0.575000
0.579167
0.575000
0.575000
0.570833
0.579167
0.545833
0.304167
0.279167
0.558333
0.116667
0.445833
0.570833
0.554167
0.558333
0.554167
0.670833
0.450000
0.550000
0.566667
0.562500
0.554167
0.570833
0.550000
0.562500
0.562500
0.554167
0.570833
0.558333
0.562500
0.558333
0.575000
0.554167
0.566667
0.566667
0.558333
0.570833
0.562500
0.554167
0.566667
0.562500
0.566667
0.562500
0.575000
0.562500
0.562500
0.562500
0.566667
0.562500
0.575000
0.558333
0.558333
0.575000
0.562500
0.570833
0.558333
0.575000
0.558333
0.570833
0.558333
0.566667
0.566667
0.550000
0.570833
0.558333
0.570833
0.562500
0.566667
0.566667
0.566667
0.562500
0.562500
0.570833
0.562500
0.562500
0.570833
0.550000
0.120833
0.454167
0.570833
0.562500
0.570833
0.558333
0.579167
0.558333
0.566667
0.570833
0.570833
0.558333
0.579167
0.558333
0.575000
0.562500
0.575000
0.566667
0.566667
0.566667
0.570833
0.566667
0.570833
0.562500
0.575000
0.570833
0.566667
0.566667
0.566667
0.570833
0.570833
0.566667
0.575000
0.566667
0.566667
0.575000
0.566667
0.579167
0.558333
0.575000
0.575000
0.570833
0.566667
0.575000
0.562500
0.583333
0.545833
0.595833
0.570833
0.566667
0.575000
0.558333
0.575000
0.570833
0.579167
0.570833
0.566667
0.575000
0.570833
0.570833
0.570833
0.579167
0.562500
0.579167
0.566667
0.575000
0.566667
0.570833
0.570833
0.566667
0.583333
0.558333
0.575000
0.575000
0.579167
0.566667
0.579167
0.566667
0.570833
0.570833
0.575000
0.570833
0.566667
0.570833
0.575000
0.566667
0.575000
0.562500
0.579167
0.566667
0.566667
0.575000
0.570833
0.562500
0.575000
0.562500
0.562500
0.583333
0.558333
0.566667
0.575000
0.566667
0.562500
0.587500
0.570833
0.587500
0.583333
0.575000
0.587500
0.587500
0.575000
0.579167
0.700000
0.208333
0.825000
0.579167
0.566667
0.583333
0.575000
0.570833
0.583333
0.587500
0.312500
0.833333
0.575000
0.558333
0.570833
0.575000
0.583333
0.554167
0.579167
0.579167
0.575000
0.558333
0.579167
0.570833
0.575000
0.566667
0.575000
0.575000
0.562500
0.570833
0.570833
0.562500
0.570833
0.566667
0.570833
0.575000
0.562500
0.570833
0.570833
0.558333
0.566667
0.575000
0.558333
0.579167
0.558333
0.570833
0.570833
0.566667
0.575000
0.566667
0.558333
0.579167
0.558333
0.575000
0.562500
0.570833
0.566667
0.570833
0.570833
0.558333
0.570833
0.570833
0.570833
0.554167
0.579167
0.545833
0.570833
0.575000
0.575000
0.562500
0.566667
0.562500
0.566667
0.575000
0.575000
0.541667
0.558333
0.575000
0.554167
0.570833
0.562500
0.570833
0.562500
0.570833
0.562500
0.575000
0.554167
0.575000
0.558333
0.575000
0.562500
