0.587500
0.595833
0.591667
0.575000
0.587500
0.591667
0.575000
0.591667
0.587500
0.583333
0.583333
0.583333
0.583333
0.579167
0.520833
0.645833
0.587500
0.587500
0.591667
0.587500
0.587500
0.591667
0.595833
0.583333
0.591667
0.591667
0.587500
0.579167
0.587500
0.583333
0.575000
0.583333
0.579167
0.579167
0.575000
0.583333
0.579167
0.579167
0.579167
0.587500
0.583333
0.579167
0.583333
0.583333
0.587500
0.579167
0.579167
0.583333
0.579167
0.575000
0.587500
0.583333
0.583333
0.583333
0.595833
0.587500
0.579167
0.583333
0.583333
0.587500
0.587500
0.583333
0.579167
0.604167
0.583333
0.591667
0.587500
0.591667
0.587500
0.587500
0.591667
0.591667
0.587500
0.587500
0.587500
0.583333
0.587500
0.570833
0.587500
0.604167
0.587500
0.587500
0.591667
0.587500
0.591667
0.587500
0.591667
0.595833
0.579167
0.566667
0.608333
0.616667
0.595833
0.595833
0.591667
0.595833
0.595833
0.587500
0.587500
0.591667
0.591667
0.587500
0.575000
0.579167
0.616667
0.604167
0.591667
0.591667
0.591667
0.595833
0.600000
0.595833
0.591667
0.587500
0.591667
0.591667
0.583333
0.587500
0.587500
0.587500
0.579167
0.591667
0.579167
0.583333
0.587500
0.583333
0.587500
0.595833
0.587500
0.591667
0.587500
0.600000
0.583333
0.583333
0.587500
0.583333
0.579167
0.579167
0.604167
0.583333
0.587500
0.583333
0.587500
0.587500
0.583333
0.591667
0.587500
0.587500
0.583333
0.587500
0.587500
0.591667
0.583333
0.587500
0.587500
0.587500
0.583333
0.583333
0.587500
0.583333
0.583333
0.579167
0.583333
0.587500
0.583333
0.583333
0.579167
0.558333
0.616667
0.587500
0.583333
0.583333
0.504167
0.666667
0.591667
0.591667
0.354167
0.237500
0.591667
0.587500
0.587500
0.587500
0.708333
0.462500
0.787500
0.462500
0.408333
0.529167
0.570833
0.320833
0.325000
0.704167
0.383333
0.658333
0.712500
0.587500
0.933333
0.241667
0.591667
0.587500
0.583333
0.266667
0.479167
0.412500
0.570833
0.604167
0.600000
0.587500
0.583333
0.583333
0.583333
0.587500
0.587500
0.583333
0.587500
0.587500
0.587500
0.583333
0.575000
0.579167
0.600000
0.612500
0.587500
0.587500
0.591667
0.587500
0.587500
0.591667
0.591667
0.587500
0.583333
0.575000
0.350000
0.254167
0.595833
0.583333
0.583333
0.587500
0.587500
0.583333
0.579167
0.583333
0.587500
0.591667
0.587500
0.587500
0.591667
0.579167
0.575000
0.608333
0.591667
0.591667
0.591667
0.579167
0.587500
0.587500
0.591667
0.591667
0.587500
0.591667
0.583333
0.579167
0.583333
0.579167
0.608333
0.583333
0.587500
0.587500
0.579167
0.587500
0.579167
0.579167
0.579167
0.583333
0.579167
0.583333
0.583333
0.575000
0.579167
0.579167
0.562500
0.591667
0.579167
0.583333
0.579167
0.579167
0.579167
0.583333
0.579167
0.587500
0.575000
0.587500
0.587500
0.587500
0.579167
0.579167
0.575000
0.575000
0.595833
0.587500
0.579167
0.583333
0.579167
0.579167
0.579167
0.216667
0.379167
0.420833
0.720833
0.645833
0.233333
0.645833
0.575000
0.391667
0.404167
0.237500
0.354167
0.583333
0.583333
0.583333
0.583333
0.583333
0.583333
0.583333
0.583333
0.762500
0.404167
0.437500
0.466667
0.341667
0.583333
0.416667
0.808333
0.437500
0.475000
0.491667
0.537500
0.425000
1.150000
0.958333
0.995833
1.312500
0.575000
0.575000
1.150000
0.579167
0.579167
0.579167
0.575000
1.158333
0.583333
0.579167
0.579167
0.579167
0.579167
0.575000
0.570833
0.608333
0.591667
0.583333
0.579167
0.579167
0.583333
0.583333
0.587500
0.575000
0.583333
0.579167
0.400000
0.162500
0.700000
0.629167
0.070833
0.445833
0.487500
0.579167
0.587500
0.570833
0.583333
0.579167
0.575000
0.583333
0.579167
0.570833
0.579167
0.566667
0.570833
0.583333
0.579167
0.575000
0.570833
0.575000
0.570833
0.575000
0.575000
0.575000
0.575000
0.575000
0.575000
0.583333
0.566667
0.575000
0.575000
0.570833
0.570833
0.570833
0.566667
0.570833
0.566667
0.566667
0.579167
0.575000
0.570833
0.570833
0.566667
0.570833
0.570833
0.570833
0.566667
0.566667
0.566667
0.575000
0.566667
0.566667
0.566667
0.570833
0.566667
0.566667
0.570833
0.570833
0.570833
0.562500
0.570833
0.570833
0.566667
0.562500
0.570833
0.562500
0.562500
0.575000
0.566667
0.566667
0.566667
0.562500
0.570833
0.562500
0.562500
0.570833
0.566667
0.562500
0.562500
0.575000
0.562500
0.566667
0.583333
0.570833
0.570833
1.137500
0.566667
0.570833
0.570833
0.570833
0.566667
0.570833
0.575000
0.566667
0.575000
0.570833
0.570833
0.566667
0.583333
0.566667
0.575000
0.570833
0.575000
0.575000
0.570833
0.566667
0.570833
0.575000
0.575000
0.575000
0.570833
0.433333
0.375000
0.341667
0.575000
0.575000
0.575000
0.570833
0.575000
0.575000
0.570833
0.570833
0.266667
0.308333
0.575000
0.579167
0.570833
0.579167
0.583333
0.575000
0.579167
0.583333
0.579167
0.579167
0.579167
0.566667
0.591667
0.591667
0.583333
0.583333
0.579167
0.587500
0.575000
0.583333
0.587500
0.579167
0.583333
0.566667
0.566667
0.595833
0.587500
0.579167
0.575000
0.579167
0.579167
0.579167
0.579167
0.579167
0.579167
0.579167
0.583333
0.579167
0.579167
0.570833
0.570833
0.591667
0.583333
0.579167
0.579167
0.583333
0.587500
0.583333
0.583333
0.583333
0.583333
0.587500
0.575000
0.587500
0.583333
0.583333
0.583333
0.579167
0.579167
0.570833
0.591667
0.591667
0.583333
0.579167
0.583333
0.583333
0.579167
0.579167
0.583333
0.583333
0.579167
0.579167
0.579167
0.575000
0.558333
0.591667
0.587500
0.579167
0.579167
0.579167
0.579167
0.579167
0.579167
0.579167
0.583333
0.575000
0.583333
0.583333
0.566667
0.575000
0.570833
0.600000
0.579167
0.575000
0.579167
0.579167
0.575000
0.579167
0.570833
0.583333
0.537500
0.608333
0.579167
0.579167
0.570833
0.570833
0.558333
0.604167
0.591667
0.583333
0.583333
0.579167
0.587500
0.583333
0.579167
0.583333
0.583333
0.579167
0.579167
0.583333
0.579167
0.579167
0.575000
0.566667
0.604167
0.579167
0.579167
0.583333
0.575000
0.579167
0.575000
0.579167
0.575000
0.579167
0.579167
0.579167
0.579167
0.587500
0.575000
0.587500
0.566667
0.600000
0.587500
0.579167
0.587500
0.583333
0.325000
0.262500
0.541667
0.620833
0.587500
0.587500
0.587500
0.587500
0.583333
0.587500
0.587500
0.591667
0.587500
0.575000
0.579167
0.579167
0.608333
0.600000
0.591667
0.591667
0.595833
0.591667
0.583333
0.595833
0.591667
0.591667
0.587500
0.583333
0.579167
0.579167
0.608333
0.591667
0.587500
0.591667
0.587500
0.591667
0.587500
0.587500
0.591667
0.587500
0.583333
0.587500
0.583333
0.583333
0.587500
0.587500
0.579167
0.575000
0.604167
0.591667
0.587500
0.591667
0.587500
0.587500
0.587500
0.583333
0.591667
0.579167
0.583333
0.587500
0.583333
0.587500
0.587500
0.587500
0.583333
0.579167
0.604167
0.583333
0.587500
0.587500
0.583333
0.583333
0.579167
0.587500
0.583333
0.583333
0.583333
0.587500
0.583333
0.583333
0.587500
0.587500
0.358333
0.229167
0.620833
0.554167
0.587500
0.583333
0.587500
0.591667
0.583333
0.583333
0.583333
0.483333
0.345833
0.329167
0.241667
0.233333
0.420833
0.304167
0.341667
0.904167
0.466667
0.579167
0.687500
0.550000
0.137500
0.216667
0.733333
0.587500
0.579167
0.579167
0.579167
0.583333
0.583333
0.583333
0.579167
0.583333
0.575000
0.583333
0.562500
0.600000
0.579167
0.470833
0.700000
1.112500
0.641667
0.583333
0.583333
0.583333
0.312500
0.358333
0.237500
0.254167
0.366667
0.566667
0.220833
0.420833
0.612500
0.133333
0.587500
0.287500
0.429167
0.450000
0.316667
0.408333
0.141667
0.391667
0.483333
0.579167
0.579167
0.587500
0.583333
1.162500
0.583333
0.587500
0.583333
0.570833
0.595833
0.583333
0.670833
0.487500
0.583333
0.583333
0.579167
0.587500
0.575000
0.583333
0.587500
0.587500
0.583333
0.591667
0.500000
0.662500
0.591667
0.583333
0.587500
0.587500
0.591667
0.583333
0.587500
0.579167
0.583333
0.587500
0.558333
0.600000
0.629167
0.595833
0.587500
0.587500
0.583333
0.587500
0.583333
0.583333
0.583333
0.579167
0.458333
0.133333
0.579167
0.595833
0.454167
0.133333
0.645833
0.412500
0.687500
0.600000
0.600000
0.595833
0.587500
0.583333
0.266667
0.325000
0.550000
0.458333
0.466667
0.350000
0.529167
0.595833
0.583333
0.562500
0.345833
0.258333
0.616667
0.533333
0.654167
0.650000
0.366667
0.762500
0.595833
0.566667
0.612500
0.475000
0.704167
0.279167
0.304167
0.583333
0.587500
0.587500
0.583333
0.600000
0.566667
0.583333
0.579167
0.570833
0.570833
0.604167
0.587500
0.583333
0.262500
0.320833
0.587500
0.587500
0.587500
0.583333
0.587500
0.591667
0.583333
0.583333
0.583333
0.570833
0.595833
0.370833
0.212500
0.462500
0.125000
0.345833
0.233333
0.583333
0.583333
0.583333
0.575000
0.579167
0.583333
0.566667
0.566667
0.370833
0.229167
0.591667
0.262500
0.258333
0.508333
0.783333
0.650000
0.129167
0.175000
0.708333
0.583333
0.433333
0.320833
0.379167
0.600000
0.579167
0.579167
1.158333
0.575000
0.575000
0.575000
0.583333
0.575000
0.579167
0.600000
0.579167
0.583333
0.583333
0.579167
0.654167
0.200000
0.891667
0.770833
0.391667
0.579167
0.579167
0.587500
0.579167
0.583333
0.583333
0.583333
0.566667
0.600000
0.587500
0.583333
0.583333
0.583333
0.583333
0.583333
0.583333
0.583333
0.479167
0.433333
0.241667
0.295833
0.312500
0.158333
0.241667
0.508333
0.650000
0.495833
0.254167
0.341667
0.220833
0.570833
0.595833
0.475000
0.683333
0.575000
0.575000
0.575000
0.579167
0.575000
0.575000
0.579167
0.575000
0.225000
0.354167
0.583333
0.575000
0.575000
0.566667
0.595833
0.579167
0.575000
0.579167
0.583333
0.575000
0.570833
0.579167
0.579167
0.345833
0.800000
0.587500
0.579167
0.579167
0.579167
0.570833
0.520833
0.816667
0.416667
0.466667
0.070833
0.616667
0.670833
0.045833
0.429167
0.283333
0.545833
0.404167
0.545833
0.520833
0.525000
0.512500
0.654167
0.270833
0.804167
0.325000
0.454167
0.612500
0.354167
0.625000
0.266667
0.325000
0.270833
1.120833
0.225000
0.370833
0.379167
0.220833
0.295833
0.570833
0.137500
0.437500
0.570833
0.429167
0.712500
0.695833
0.487500
0.287500
0.233333
0.566667
0.579167
0.570833
0.570833
0.562500
0.575000
0.683333
0.466667
0.579167
0.537500
0.412500
0.225000
0.562500
0.579167
0.316667
0.270833
0.570833
0.583333
0.579167
0.570833
0.570833
0.575000
0.575000
0.595833
0.583333
0.575000
0.579167
0.579167
0.579167
0.583333
0.579167
0.575000
0.583333
0.579167
0.583333
0.583333
0.579167
0.583333
0.583333
0.570833
0.570833
0.608333
0.591667
0.587500
0.587500
0.587500
0.583333
0.591667
0.591667
0.587500
0.583333
0.587500
0.591667
0.566667
0.608333
0.583333
0.579167
0.570833
0.750000
