1.295833
0.995833
0.475000
0.345833
0.804167
1.220833
0.483333
0.608333
0.762500
0.695833
1.479167
0.491667
0.354167
0.375000
0.370833
0.258333
0.441667
0.354167
0.354167
0.333333
0.341667
0.362500
0.370833
0.412500
0.445833
0.375000
0.345833
0.325000
0.354167
0.383333
0.375000
0.354167
0.362500
0.408333
0.383333
0.375000
0.358333
0.358333
0.387500
0.362500
0.391667
0.391667
0.358333
0.445833
0.383333
0.366667
0.400000
1.504167
1.154167
1.266667
0.904167
0.958333
1.166667
0.475000
0.608333
0.741667
0.345833
0.679167
0.400000
0.604167
0.541667
0.383333
0.475000
0.658333
0.395833
0.470833
0.641667
0.433333
0.466667
0.654167
1.379167
0.462500
0.362500
0.620833
0.291667
0.329167
0.337500
0.333333
0.329167
0.354167
0.250000
0.587500
0.387500
0.362500
0.375000
0.358333
1.433333
0.991667
1.350000
0.483333
1.375000
0.487500
0.341667
0.320833
0.325000
0.291667
0.345833
0.345833
0.312500
0.300000
0.537500
1.745833
0.470833
0.366667
0.345833
0.325000
0.308333
0.370833
0.375000
0.350000
0.354167
0.354167
0.354167
0.350000
0.362500
0.358333
0.358333
0.354167
0.362500
0.362500
0.358333
0.362500
0.366667
0.362500
0.366667
0.366667
0.362500
0.362500
0.370833
0.370833
0.362500
0.362500
0.370833
0.362500
0.366667
0.366667
1.529167
0.462500
0.379167
0.933333
1.158333
0.454167
0.341667
0.325000
0.308333
0.354167
0.370833
0.379167
0.370833
0.354167
0.362500
0.358333
0.362500
0.366667
0.366667
0.358333
0.362500
0.375000
0.366667
0.354167
1.208333
1.608333
0.458333
0.354167
0.358333
0.400000
0.395833
0.354167
0.329167
0.366667
0.383333
0.412500
0.437500
0.400000
0.383333
0.362500
0.350000
0.358333
0.358333
0.362500
0.354167
0.358333
0.395833
0.387500
0.387500
0.375000
0.358333
0.358333
0.358333
0.345833
0.341667
0.366667
0.387500
0.383333
0.425000
0.391667
0.362500
0.366667
0.354167
0.404167
0.408333
0.350000
0.370833
0.462500
0.387500
0.333333
0.337500
0.345833
0.341667
0.370833
0.366667
0.354167
0.358333
0.375000
0.404167
0.433333
0.375000
0.362500
0.391667
0.358333
0.333333
0.425000
0.400000
0.379167
0.354167
0.354167
0.354167
0.350000
0.350000
0.433333
0.387500
0.387500
0.383333
0.345833
0.320833
0.345833
0.370833
0.379167
0.387500
0.362500
0.333333
0.358333
0.375000
0.375000
0.366667
0.375000
0.395833
0.387500
0.370833
0.350000
0.425000
0.416667
0.529167
0.387500
0.400000
0.408333
0.420833
0.433333
0.408333
0.370833
0.366667
0.362500
0.329167
0.333333
0.333333
0.329167
0.412500
0.579167
0.391667
0.337500
0.325000
0.316667
0.362500
0.379167
0.329167
2.516667
1.212500
1.304167
1.091667
1.370833
1.062500
1.004167
0.958333
1.020833
0.791667
1.104167
0.750000
1.312500
1.016667
1.058333
0.854167
0.941667
0.937500
0.925000
0.929167
1.016667
0.833333
0.916667
0.462500
0.625000
0.395833
0.545833
1.475000
0.487500
0.345833
0.345833
1.241667
0.479167
0.337500
0.300000
0.520833
1.416667
0.479167
0.350000
0.350000
0.550000
0.433333
0.575000
1.141667
1.012500
0.970833
0.475000
0.337500
0.312500
0.337500
0.254167
0.479167
0.370833
0.254167
0.400000
0.366667
1.558333
0.483333
0.370833
0.337500
0.329167
1.633333
0.475000
0.366667
0.345833
0.345833
1.316667
0.466667
0.362500
0.341667
0.333333
1.533333
0.470833
0.362500
0.345833
0.337500
0.366667
0.362500
0.358333
0.350000
0.358333
0.358333
0.354167
0.350000
0.362500
0.358333
0.366667
0.366667
0.362500
0.358333
0.370833
0.362500
0.358333
0.370833
0.366667
0.358333
0.362500
0.375000
0.366667
0.362500
0.370833
0.366667
0.362500
0.358333
0.375000
0.366667
0.358333
0.370833
0.375000
0.366667
0.362500
0.366667
0.366667
0.366667
0.370833
0.366667
0.370833
0.362500
0.362500
0.366667
0.375000
0.366667
0.370833
0.370833
0.362500
0.370833
0.370833
0.366667
0.366667
0.366667
0.370833
0.370833
0.366667
0.366667
0.375000
0.370833
0.354167
0.375000
0.375000
0.370833
0.362500
0.370833
0.375000
0.370833
0.366667
0.370833
0.375000
0.370833
0.366667
0.366667
0.375000
0.370833
0.362500
0.375000
0.370833
0.370833
0.366667
0.362500
0.370833
0.375000
0.379167
0.370833
0.362500
0.362500
0.370833
0.370833
0.358333
0.370833
0.362500
0.370833
0.366667
0.366667
0.370833
0.358333
0.362500
0.370833
0.366667
0.366667
0.362500
0.366667
1.670833
0.483333
0.370833
0.329167
0.316667
0.312500
0.308333
1.208333
1.433333
1.112500
0.866667
0.879167
0.866667
0.870833
0.854167
0.870833
1.100000
0.466667
0.345833
0.358333
0.395833
0.375000
0.254167
0.433333
0.354167
0.366667
0.370833
0.245833
0.454167
0.412500
0.375000
0.362500
0.345833
0.312500
0.325000
0.454167
0.383333
0.375000
0.245833
0.791667
0.279167
0.337500
0.450000
0.391667
0.325000
0.345833
0.370833
0.358333
0.370833
0.358333
0.350000
0.395833
0.400000
0.250000
0.641667
0.379167
0.333333
0.554167
0.375000
0.308333
0.329167
0.333333
0.350000
0.345833
0.358333
0.354167
0.337500
0.354167
0.391667
0.379167
0.329167
0.362500
0.362500
0.379167
0.366667
0.350000
0.379167
0.358333
0.375000
0.354167
0.358333
0.362500
0.366667
0.366667
1.729167
1.508333
1.437500
1.458333
1.108333
1.216667
1.070833
0.975000
1.000000
0.975000
1.016667
1.070833
0.879167
0.975000
1.054167
0.858333
0.966667
0.466667
0.833333
0.800000
0.329167
0.366667
0.329167
0.375000
0.408333
0.375000
0.258333
0.454167
0.354167
0.358333
0.375000
0.425000
0.400000
0.362500
0.375000
0.358333
0.704167
1.362500
0.475000
0.366667
0.329167
0.308333
0.375000
0.375000
0.325000
0.333333
0.362500
0.354167
0.345833
0.354167
0.354167
0.345833
0.350000
0.358333
0.358333
0.354167
0.354167
0.358333
0.358333
0.350000
0.358333
0.362500
0.354167
0.358333
0.370833
0.362500
0.350000
0.366667
0.366667
0.358333
0.358333
0.366667
0.366667
0.366667
0.362500
0.366667
0.366667
0.358333
0.366667
0.370833
0.366667
0.358333
0.375000
0.370833
0.358333
0.362500
0.366667
0.366667
0.362500
0.362500
0.370833
0.366667
0.350000
0.366667
0.370833
0.366667
0.362500
0.366667
0.366667
0.362500
0.358333
0.362500
0.366667
0.366667
0.366667
0.358333
0.370833
0.362500
0.358333
0.362500
0.366667
0.362500
0.362500
0.362500
0.370833
0.362500
0.350000
0.370833
1.591667
1.145833
0.995833
0.983333
0.966667
0.958333
0.950000
0.950000
0.945833
0.933333
0.854167
1.037500
0.933333
0.850000
1.025000
0.937500
0.845833
1.029167
0.845833
1.025000
0.366667
0.704167
0.525000
0.770833
0.725000
0.295833
0.379167
0.358333
0.333333
0.350000
0.358333
0.416667
0.375000
0.354167
0.341667
0.333333
0.350000
0.345833
0.333333
0.362500
0.504167
0.450000
0.379167
0.370833
0.379167
0.383333
0.366667
0.337500
0.337500
0.337500
0.333333
0.625000
0.275000
0.316667
0.337500
0.383333
0.358333
0.350000
0.608333
0.266667
0.350000
0.370833
0.387500
0.366667
0.341667
0.350000
0.333333
0.325000
0.345833
0.325000
0.295833
0.295833
0.341667
0.345833
0.345833
0.350000
0.341667
0.358333
0.362500
0.350000
0.337500
0.475000
0.420833
0.370833
0.345833
0.362500
0.387500
0.370833
0.375000
0.350000
0.341667
0.320833
0.320833
0.341667
0.366667
0.354167
0.362500
0.383333
0.383333
0.383333
0.366667
0.383333
0.370833
0.345833
0.333333
0.441667
0.395833
0.350000
0.370833
0.366667
0.379167
0.391667
0.579167
0.375000
0.337500
0.362500
0.370833
0.425000
0.375000
0.362500
0.362500
0.354167
0.350000
0.350000
0.354167
0.358333
0.366667
0.391667
0.354167
0.333333
0.341667
0.345833
0.341667
0.370833
0.383333
0.375000
0.337500
0.350000
0.387500
0.350000
0.337500
0.358333
0.366667
0.375000
0.404167
1.612500
1.329167
1.450000
1.391667
1.050000
1.250000
1.458333
1.212500
0.991667
0.987500
0.987500
0.983333
0.962500
0.958333
0.945833
0.941667
0.933333
0.933333
0.933333
0.929167
0.925000
0.925000
0.470833
0.716667
0.650000
1.316667
0.487500
0.400000
1.450000
0.491667
0.604167
0.691667
0.645833
0.770833
0.454167
0.566667
0.429167
0.354167
0.587500
0.358333
0.487500
1.370833
0.462500
0.358333
0.354167
0.337500
0.383333
0.383333
0.400000
1.895833
0.479167
0.345833
0.304167
0.387500
0.383333
0.391667
0.383333
0.345833
0.337500
0.345833
0.358333
0.341667
1.508333
0.458333
0.345833
0.325000
0.366667
0.375000
0.370833
0.366667
0.350000
0.341667
0.350000
0.575000
0.270833
0.537500
0.383333
0.362500
0.366667
0.358333
0.358333
0.375000
0.370833
0.408333
0.370833
0.333333
0.362500
0.379167
0.370833
0.362500
0.366667
0.370833
0.391667
0.379167
0.366667
0.345833
0.366667
0.366667
0.354167
0.358333
0.375000
0.379167
0.350000
0.345833
0.358333
0.370833
0.462500
0.383333
0.391667
0.341667
0.408333
0.387500
0.462500
0.362500
0.362500
0.379167
0.383333
0.333333
0.345833
0.412500
0.391667
0.362500
0.320833
0.879167
0.341667
0.308333
1.200000
0.275000
0.354167
0.337500
0.283333
0.337500
0.366667
0.366667
0.337500
0.345833
0.366667
0.370833
0.425000
0.395833
0.370833
0.350000
0.358333
0.370833
0.383333
0.241667
0.500000
0.379167
0.412500
0.383333
0.358333
0.358333
0.370833
0.391667
0.458333
0.383333
0.345833
0.329167
0.341667
0.362500
0.375000
0.391667
0.395833
0.362500
0.354167
0.370833
0.354167
0.450000
2.325000
1.158333
1.329167
1.020833
0.900000
0.904167
1.079167
0.983333
1.212500
1.016667
0.975000
1.066667
0.854167
0.954167
0.945833
1.020833
0.833333
1.008333
0.791667
0.862500
0.929167
0.929167
1.200000
0.595833
0.662500
0.312500
0.383333
0.391667
0.400000
0.558333
0.645833
1.279167
0.470833
0.350000
0.425000
0.391667
1.620833
0.483333
0.341667
0.300000
0.320833
1.641667
1.070833
0.641667
0.595833
0.625000
0.287500
0.345833
0.650000
1.154167
0.470833
0.345833
0.350000
0.329167
0.337500
0.366667
0.600000
0.362500
0.412500
0.450000
0.675000
1.383333
0.470833
0.337500
0.304167
0.700000
0.729167
1.670833
0.491667
0.345833
0.300000
0.312500
0.362500
0.375000
0.366667
0.350000
0.350000
0.583333
0.329167
0.379167
0.341667
0.354167
0.391667
0.366667
0.362500
0.404167
0.400000
0.379167
0.404167
0.629167
0.566667
0.291667
0.370833
0.345833
0.345833
0.345833
0.341667
1.558333
0.470833
0.362500
0.341667
0.325000
0.362500
0.383333
0.350000
0.350000
0.362500
0.366667
0.350000
0.354167
0.366667
0.370833
0.362500
0.362500
0.366667
0.366667
0.370833
0.366667
0.366667
0.362500
0.362500
0.370833
0.366667
0.366667
0.370833
0.375000
0.366667
0.370833
0.366667
0.362500
0.375000
0.370833
0.370833
0.370833
0.370833
0.366667
0.370833
0.375000
0.370833
0.375000
0.366667
0.366667
0.370833
0.370833
0.375000
0.370833
0.366667
0.370833
0.370833
0.370833
0.366667
0.370833
0.370833
0.366667
0.375000
0.370833
0.362500
0.366667
0.370833
0.370833
0.366667
0.370833
0.370833
0.366667
0.358333
0.370833
0.370833
0.358333
0.375000
0.370833
0.358333
0.366667
0.370833
0.370833
0.366667
0.370833
0.366667
0.370833
0.370833
0.370833
0.358333
0.362500
0.366667
0.366667
0.354167
0.370833
0.370833
0.366667
0.362500
0.366667
0.370833
0.366667
0.366667
0.362500
0.362500
0.366667
0.370833
0.362500
0.358333
0.366667
0.366667
0.366667
0.366667
0.366667
0.362500
0.354167
0.366667
0.370833
0.362500
0.366667
0.362500
0.366667
0.366667
0.362500
0.366667
0.362500
0.358333
0.358333
0.366667
0.366667
0.358333
0.354167
0.370833
0.366667
0.358333
0.366667
0.637500
0.479167
1.225000
1.429167
1.116667
1.004167
0.962500
0.950000
0.875000
0.950000
1.241667
1.045833
0.870833
1.029167
0.929167
0.791667
0.933333
1.320833
0.487500
0.358333
0.375000
0.333333
0.250000
0.416667
0.237500
0.433333
0.379167
0.379167
0.379167
0.387500
0.245833
1.179167
1.208333
0.466667
0.337500
0.804167
1.058333
0.458333
0.279167
0.454167
0.391667
0.362500
0.354167
0.358333
0.341667
0.333333
0.362500
0.366667
0.345833
0.391667
0.375000
0.362500
0.391667
0.370833
0.345833
0.366667
0.370833
0.337500
0.337500
0.383333
0.679167
0.366667
0.412500
0.379167
0.412500
0.454167
0.375000
0.375000
0.370833
0.362500
