0.587500
0.583333
0.575000
0.704167
0.283333
0.204167
0.320833
0.300000
0.500000
0.308333
0.841667
0.570833
0.575000
0.575000
0.570833
0.562500
0.562500
0.570833
0.570833
0.558333
0.558333
0.562500
0.566667
0.558333
0.554167
0.554167
0.562500
0.562500
0.554167
0.550000
0.554167
0.558333
0.554167
0.550000
0.550000
0.558333
0.558333
0.550000
0.545833
0.554167
0.562500
0.545833
0.550000
0.554167
0.554167
0.550000
0.545833
0.550000
0.554167
0.554167
0.550000
0.545833
0.550000
0.558333
0.545833
0.545833
0.550000
0.554167
0.545833
0.545833
0.550000
0.550000
0.554167
0.545833
0.545833
0.550000
0.550000
0.545833
0.545833
0.545833
0.550000
0.541667
0.545833
0.537500
0.287500
0.262500
0.229167
0.320833
0.550000
0.550000
0.554167
0.558333
0.545833
0.545833
0.550000
0.558333
0.545833
0.545833
0.550000
0.554167
0.541667
0.545833
0.545833
0.554167
0.541667
0.545833
0.545833
0.550000
0.550000
0.541667
0.545833
0.550000
0.554167
0.541667
0.545833
0.550000
0.550000
0.545833
0.545833
0.545833
0.550000
0.554167
0.545833
0.545833
0.545833
0.554167
0.545833
0.541667
0.545833
0.550000
0.545833
0.541667
0.545833
0.550000
0.554167
0.541667
0.545833
0.550000
0.554167
0.545833
0.395833
0.145833
0.225000
0.879167
0.550000
0.554167
0.558333
0.558333
0.550000
0.558333
0.554167
0.554167
0.541667
0.520833
0.600000
0.329167
0.270833
0.508333
0.562500
0.554167
0.550000
0.558333
0.562500
0.550000
0.554167
0.558333
0.550000
0.550000
0.554167
0.558333
0.550000
0.545833
0.554167
0.558333
0.545833
0.550000
0.550000
0.558333
0.545833
0.545833
0.550000
0.558333
0.545833
0.545833
0.550000
0.554167
0.550000
0.545833
0.550000
0.550000
0.545833
0.545833
0.550000
0.541667
0.545833
0.545833
0.550000
0.545833
0.541667
0.545833
0.554167
0.541667
0.545833
0.550000
0.541667
0.541667
0.545833
0.554167
0.683333
0.404167
0.550000
0.554167
0.545833
0.545833
0.550000
0.554167
0.545833
0.550000
0.545833
0.554167
0.554167
0.545833
0.395833
0.458333
0.241667
0.462500
0.650000
0.554167
0.558333
0.562500
0.554167
0.554167
0.558333
0.562500
0.554167
0.554167
0.562500
0.558333
0.554167
0.550000
0.558333
0.558333
0.554167
0.550000
0.554167
0.558333
0.550000
0.550000
0.554167
0.554167
0.550000
0.550000
0.554167
0.545833
0.550000
0.550000
0.558333
0.545833
0.550000
0.550000
0.558333
0.550000
0.554167
0.550000
0.554167
0.558333
0.550000
0.554167
0.554167
0.558333
0.550000
0.550000
0.554167
0.558333
0.554167
0.550000
0.554167
0.550000
0.558333
0.554167
0.550000
0.550000
0.554167
0.554167
0.550000
0.550000
0.554167
0.550000
0.558333
0.558333
0.550000
0.554167
0.550000
0.554167
0.558333
0.550000
0.550000
0.550000
0.554167
0.558333
0.550000
0.550000
0.554167
0.558333
0.554167
0.550000
0.554167
0.558333
0.554167
0.550000
0.554167
0.550000
0.562500
0.550000
0.550000
0.554167
0.554167
0.554167
0.558333
0.550000
0.554167
0.550000
0.558333
0.550000
0.550000
0.554167
0.554167
0.554167
0.550000
0.483333
0.604167
0.566667
0.558333
0.550000
0.554167
0.554167
0.558333
0.558333
0.550000
0.554167
0.554167
0.558333
0.554167
0.550000
0.554167
0.554167
0.558333
0.554167
0.550000
0.554167
0.558333
0.558333
0.554167
0.550000
0.558333
0.558333
0.554167
0.554167
0.554167
0.562500
0.550000
0.554167
0.554167
0.554167
0.558333
0.554167
0.550000
0.554167
0.554167
0.554167
0.554167
0.558333
0.554167
0.558333
0.558333
0.554167
0.554167
0.554167
0.562500
0.554167
0.554167
0.558333
0.554167
0.558333
0.554167
0.554167
0.558333
0.562500
0.550000
0.558333
0.554167
0.558333
0.562500
0.562500
0.554167
0.554167
0.558333
0.562500
0.558333
0.558333
0.558333
0.554167
0.566667
0.554167
0.554167
0.558333
0.558333
0.558333
0.554167
0.558333
0.558333
0.554167
0.562500
0.562500
0.554167
0.558333
0.558333
0.562500
0.558333
0.554167
0.558333
0.558333
0.566667
0.558333
0.554167
0.558333
0.566667
0.558333
0.558333
0.558333
0.566667
0.554167
0.558333
0.558333
0.562500
0.554167
0.554167
0.558333
0.566667
0.550000
0.554167
0.558333
0.558333
0.558333
0.554167
0.554167
0.554167
0.558333
0.562500
0.554167
0.554167
0.554167
0.558333
0.558333
0.558333
0.554167
0.554167
0.562500
0.558333
0.554167
0.554167
0.554167
0.554167
0.566667
0.554167
0.554167
0.554167
0.558333
0.562500
0.558333
0.554167
0.558333
0.558333
0.562500
0.558333
0.558333
0.558333
0.562500
0.562500
0.566667
0.562500
0.558333
0.562500
0.562500
0.566667
0.566667
0.558333
0.562500
0.558333
0.566667
0.566667
0.558333
0.554167
0.562500
0.562500
0.562500
0.558333
0.554167
0.562500
0.562500
0.554167
0.558333
0.554167
0.558333
0.562500
0.554167
0.558333
0.558333
0.554167
0.562500
0.558333
0.554167
0.554167
0.554167
0.558333
0.558333
0.562500
0.554167
0.554167
0.558333
0.562500
0.554167
0.554167
0.554167
0.558333
0.566667
0.554167
0.558333
0.558333
0.558333
0.287500
0.270833
0.562500
0.558333
0.558333
0.562500
0.562500
0.566667
0.554167
0.558333
0.558333
0.562500
0.566667
0.558333
0.558333
0.558333
0.562500
0.566667
0.562500
0.558333
0.558333
0.562500
0.562500
0.558333
0.558333
0.558333
0.562500
0.562500
0.554167
0.554167
0.558333
0.558333
0.562500
0.558333
0.554167
0.558333
0.562500
0.562500
0.558333
0.558333
0.558333
0.562500
0.562500
0.566667
0.558333
0.558333
0.566667
0.558333
0.562500
0.558333
0.562500
0.570833
0.558333
0.558333
0.558333
0.562500
0.566667
0.566667
0.558333
0.558333
0.562500
0.566667
0.566667
0.558333
0.558333
0.562500
0.566667
0.566667
0.562500
0.558333
0.562500
0.566667
0.566667
0.562500
0.562500
0.562500
0.566667
0.566667
0.562500
0.558333
0.562500
0.566667
0.562500
0.562500
0.558333
0.562500
0.562500
0.566667
0.558333
0.562500
0.558333
0.562500
0.558333
0.566667
0.558333
0.562500
0.558333
0.558333
0.566667
0.558333
0.558333
0.562500
0.558333
0.566667
0.562500
0.562500
0.562500
0.562500
0.570833
0.558333
0.566667
0.562500
0.562500
0.570833
0.562500
0.562500
0.562500
0.562500
0.566667
0.566667
0.562500
0.562500
0.566667
0.566667
0.562500
0.562500
0.562500
0.570833
0.570833
0.562500
0.562500
0.562500
0.566667
0.570833
0.558333
0.562500
0.562500
0.566667
0.566667
0.562500
0.558333
0.566667
0.566667
0.562500
0.558333
0.562500
0.562500
0.566667
0.558333
0.558333
0.558333
0.562500
0.566667
0.558333
0.558333
0.558333
0.562500
0.566667
0.558333
0.220833
0.337500
0.562500
0.562500
0.566667
0.558333
0.558333
0.562500
0.566667
0.566667
0.558333
0.562500
0.562500
0.570833
0.562500
0.558333
0.562500
0.562500
0.570833
0.562500
0.450000
0.670833
0.566667
0.562500
0.562500
0.562500
0.558333
0.566667
0.566667
0.562500
0.558333
0.566667
0.566667
0.562500
0.558333
0.562500
0.566667
0.562500
0.558333
0.562500
0.562500
0.566667
0.562500
0.558333
0.562500
0.562500
0.570833
0.558333
0.562500
0.558333
0.566667
0.562500
0.562500
0.562500
0.562500
0.566667
0.562500
0.562500
0.566667
0.566667
0.562500
0.562500
0.562500
0.566667
0.570833
0.562500
0.562500
0.566667
0.570833
0.562500
0.566667
0.566667
0.566667
0.570833
0.562500
0.562500
0.566667
0.566667
0.562500
0.562500
0.562500
0.566667
0.566667
0.562500
0.562500
0.562500
0.566667
0.570833
0.562500
0.562500
0.562500
0.562500
0.570833
0.562500
0.562500
0.562500
0.562500
0.570833
0.558333
0.562500
0.566667
0.562500
0.566667
0.570833
0.562500
0.562500
0.562500
0.566667
0.562500
0.570833
0.566667
0.562500
0.566667
0.566667
0.570833
0.562500
0.566667
0.562500
0.566667
0.229167
0.495833
0.408333
0.566667
0.566667
0.570833
0.566667
0.562500
0.566667
0.570833
0.566667
0.566667
0.566667
0.570833
0.566667
0.566667
0.566667
0.566667
0.570833
0.562500
0.562500
0.566667
0.566667
0.566667
0.562500
0.562500
0.566667
0.566667
0.562500
0.562500
0.562500
0.562500
0.570833
0.562500
0.562500
0.562500
0.566667
0.570833
0.562500
0.562500
0.745833
0.383333
0.575000
0.320833
0.370833
0.362500
0.637500
0.570833
0.562500
0.566667
0.562500
0.570833
0.566667
0.566667
0.562500
0.566667
0.579167
0.304167
0.250000
0.558333
0.566667
0.566667
0.570833
0.562500
0.562500
0.562500
0.562500
0.570833
0.562500
0.562500
0.562500
0.566667
0.566667
0.562500
0.562500
0.562500
0.566667
0.566667
0.562500
0.558333
0.566667
0.566667
0.558333
0.562500
0.562500
0.566667
0.562500
0.558333
0.562500
0.566667
0.562500
0.562500
0.562500
0.562500
0.570833
0.562500
0.562500
0.562500
0.566667
0.566667
0.566667
0.562500
0.566667
0.566667
0.570833
0.562500
0.562500
0.562500
0.570833
0.566667
0.562500
0.562500
0.562500
0.566667
0.566667
0.562500
0.562500
0.566667
0.566667
0.562500
0.562500
0.566667
0.562500
0.570833
0.562500
0.562500
0.566667
0.566667
0.566667
0.566667
0.566667
0.570833
0.570833
0.562500
0.566667
0.229167
0.337500
0.570833
0.575000
0.562500
0.566667
0.566667
0.570833
0.570833
0.562500
0.566667
0.570833
0.570833
0.562500
0.566667
0.562500
0.570833
0.566667
0.562500
0.562500
0.566667
0.566667
0.562500
0.562500
0.562500
0.566667
0.575000
0.562500
0.562500
0.566667
0.566667
0.575000
0.562500
0.562500
0.566667
0.570833
0.570833
0.245833
0.316667
0.566667
0.558333
0.587500
0.562500
0.566667
0.566667
0.570833
0.570833
0.562500
0.566667
0.570833
0.575000
0.566667
0.566667
0.575000
0.562500
0.566667
0.566667
0.575000
0.570833
0.566667
0.566667
0.566667
0.570833
0.566667
0.562500
0.566667
0.566667
0.566667
0.562500
0.566667
0.562500
0.570833
0.562500
0.566667
0.566667
0.566667
0.575000
0.566667
0.566667
0.570833
0.570833
0.575000
0.570833
0.566667
0.570833
0.783333
0.362500
0.566667
0.570833
0.566667
0.575000
0.566667
0.566667
0.570833
0.575000
0.566667
0.566667
0.566667
0.575000
0.566667
0.566667
0.566667
0.570833
0.566667
0.566667
0.566667
0.566667
0.570833
0.566667
0.566667
0.566667
0.566667
0.570833
0.566667
0.570833
0.566667
0.570833
0.566667
0.566667
0.570833
0.570833
0.566667
0.566667
0.570833
0.570833
0.562500
0.566667
0.566667
0.570833
0.562500
0.566667
0.566667
0.566667
0.570833
0.562500
0.566667
0.566667
0.566667
0.575000
0.566667
0.566667
0.566667
0.566667
0.575000
0.566667
0.566667
0.566667
0.575000
0.566667
0.566667
0.570833
0.566667
0.570833
0.570833
0.570833
0.254167
0.308333
0.570833
0.570833
0.566667
0.566667
0.566667
0.566667
0.575000
0.562500
0.566667
0.566667
0.570833
0.566667
0.562500
0.566667
0.566667
0.570833
0.562500
0.562500
0.562500
0.562500
0.570833
0.562500
0.562500
0.566667
0.566667
0.570833
0.566667
0.562500
0.566667
0.566667
0.570833
0.562500
0.562500
0.566667
0.566667
0.570833
0.562500
0.562500
