0.300000
0.700000
0.529167
0.454167
0.254167
0.516667
0.345833
0.379167
0.266667
0.604167
0.750000
0.383333
0.333333
0.604167
0.370833
0.370833
0.270833
0.362500
0.370833
0.629167
0.562500
0.383333
0.108333
0.154167
0.608333
0.600000
0.633333
0.833333
0.245833
0.616667
0.362500
0.158333
0.491667
0.337500
0.266667
0.612500
0.608333
0.733333
0.220833
0.362500
0.391667
0.729167
0.725000
0.362500
0.887500
0.854167
0.625000
0.362500
0.337500
0.370833
0.633333
0.708333
0.354167
0.850000
0.737500
0.825000
0.637500
0.220833
0.629167
1.687500
0.270833
0.595833
0.733333
0.616667
0.375000
0.575000
0.654167
0.583333
0.033333
0.512500
0.458333
0.150000
0.329167
0.395833
0.137500
0.104167
0.754167
0.741667
0.829167
0.370833
0.383333
0.754167
0.254167
0.358333
0.475000
0.279167
0.737500
0.008333
0.479167
0.629167
0.479167
0.745833
0.475000
0.287500
0.575000
0.029167
0.850000
0.345833
0.245833
0.758333
0.358333
0.266667
0.370833
0.379167
0.475000
0.750000
0.120833
0.491667
0.491667
0.625000
0.362500
0.600000
0.150000
0.341667
0.400000
0.708333
0.033333
0.583333
0.295833
0.725000
0.729167
0.254167
0.466667
0.641667
0.741667
0.991667
0.708333
0.395833
0.104167
0.370833
0.383333
0.245833
0.475000
0.366667
0.245833
0.400000
0.125000
0.341667
0.362500
0.270833
0.354167
0.629167
0.479167
0.258333
0.754167
0.362500
0.591667
0.487500
0.395833
0.750000
0.970833
0.379167
1.091667
0.483333
0.500000
0.616667
0.245833
0.504167
0.116667
0.758333
0.262500
0.241667
0.345833
0.750000
0.387500
0.225000
0.375000
0.158333
0.466667
0.495833
0.150000
0.370833
0.245833
0.250000
0.595833
0.383333
0.250000
0.245833
0.841667
0.129167
0.795833
0.558333
0.241667
0.537500
0.216667
0.595833
0.408333
0.812500
0.779167
0.587500
0.120833
0.362500
0.387500
0.141667
0.579167
0.158333
0.579167
1.516667
0.704167
0.520833
0.708333
0.033333
0.591667
0.858333
0.158333
0.250000
0.325000
0.516667
0.379167
0.483333
0.233333
0.470833
0.620833
0.037500
0.704167
0.233333
0.658333
0.204167
0.612500
0.154167
0.379167
0.237500
0.366667
0.375000
0.112500
0.470833
0.137500
0.362500
0.733333
0.237500
0.266667
0.725000
0.241667
0.491667
0.637500
0.466667
0.154167
0.741667
0.445833
0.500000
0.250000
0.366667
0.400000
0.600000
0.245833
0.966667
0.150000
0.483333
0.125000
0.495833
0.583333
0.266667
0.483333
0.712500
0.387500
0.237500
0.595833
0.383333
0.337500
0.395833
0.333333
0.150000
0.483333
0.125000
0.716667
0.379167
0.262500
0.612500
0.258333
1.329167
0.770833
0.120833
0.345833
0.629167
0.362500
0.883333
0.870833
0.962500
0.529167
0.612500
0.495833
0.341667
0.375000
0.641667
0.495833
0.220833
0.275000
0.370833
0.358333
1.100000
0.216667
0.487500
0.512500
0.137500
0.850000
0.220833
0.270833
0.125000
0.458333
0.270833
0.366667
0.733333
0.341667
0.616667
0.141667
0.837500
0.266667
0.245833
0.241667
0.470833
0.483333
0.262500
0.258333
0.483333
0.475000
0.491667
0.729167
0.766667
0.483333
0.254167
0.133333
0.850000
0.533333
0.116667
0.383333
0.837500
0.241667
0.620833
0.370833
0.629167
0.741667
0.487500
0.366667
0.400000
0.483333
0.979167
0.150000
0.466667
0.404167
0.600000
0.400000
0.475000
0.145833
0.479167
0.229167
0.404167
0.850000
0.137500
0.708333
0.600000
0.645833
0.975000
0.579167
0.366667
0.395833
0.483333
0.237500
0.400000
0.841667
0.366667
0.379167
0.337500
0.512500
0.108333
0.608333
0.133333
0.725000
0.491667
0.250000
0.487500
0.266667
1.204167
0.479167
0.375000
0.483333
0.370833
0.720833
0.879167
0.704167
0.150000
0.475000
0.266667
0.458333
0.154167
0.370833
0.970833
0.395833
0.958333
0.400000
0.108333
0.495833
0.141667
0.733333
0.616667
0.391667
0.725000
0.250000
0.141667
0.479167
0.012500
0.612500
0.620833
0.529167
0.245833
0.616667
0.750000
0.370833
0.483333
0.008333
0.729167
0.237500
0.491667
0.454167
0.862500
0.362500
0.404167
0.595833
0.750000
0.487500
0.116667
0.733333
0.237500
0.512500
0.358333
0.270833
0.470833
0.266667
0.745833
0.125000
0.395833
0.333333
0.512500
0.620833
0.262500
0.233333
0.370833
0.375000
0.616667
0.475000
0.375000
0.400000
0.479167
0.483333
0.137500
0.620833
0.129167
0.612500
1.008333
0.229167
0.600000
0.641667
0.237500
0.520833
0.475000
0.495833
0.258333
0.620833
0.616667
0.470833
0.487500
0.158333
0.208333
0.533333
0.466667
0.275000
0.504167
0.116667
0.237500
0.725000
0.137500
0.508333
0.479167
0.266667
0.333333
0.287500
0.466667
0.508333
0.366667
0.387500
0.250000
0.366667
0.487500
0.233333
1.370833
0.237500
0.625000
0.745833
0.250000
0.395833
0.587500
0.254167
0.387500
0.345833
0.641667
0.129167
0.254167
0.612500
0.862500
0.262500
0.595833
0.158333
0.604167
0.345833
0.245833
0.245833
0.158333
0.454167
0.875000
0.395833
0.516667
0.604167
0.370833
0.370833
0.254167
0.837500
0.483333
0.158333
0.320833
0.645833
0.125000
0.750000
0.479167
0.241667
0.462500
0.383333
0.350000
0.641667
0.362500
0.608333
0.116667
0.354167
0.012500
0.620833
0.612500
0.700000
0.137500
0.250000
0.845833
0.520833
0.245833
0.358333
0.733333
0.350000
0.604167
0.129167
0.366667
0.720833
0.633333
0.375000
0.241667
0.245833
0.733333
0.366667
0.341667
0.266667
0.350000
0.358333
0.487500
0.158333
0.237500
0.495833
0.366667
0.120833
0.462500
0.512500
0.462500
0.154167
0.375000
0.237500
0.612500
0.616667
0.483333
0.604167
0.250000
0.366667
0.375000
0.716667
0.716667
0.245833
0.387500
0.229167
0.250000
0.412500
0.220833
0.245833
0.583333
0.275000
0.483333
0.362500
0.850000
0.250000
0.116667
0.500000
0.370833
0.366667
0.362500
0.225000
0.387500
0.983333
0.375000
0.745833
0.370833
0.112500
0.495833
0.250000
0.275000
0.500000
0.345833
0.145833
0.504167
0.375000
0.600000
0.141667
0.741667
0.645833
0.250000
0.354167
0.250000
0.500000
0.475000
0.370833
0.154167
0.245833
0.370833
0.366667
0.350000
0.387500
0.483333
0.258333
0.391667
0.633333
0.379167
0.466667
0.479167
0.275000
0.375000
0.495833
0.112500
0.354167
0.141667
0.625000
0.495833
0.366667
0.604167
0.008333
0.587500
0.379167
0.629167
0.245833
0.462500
0.375000
0.504167
0.483333
0.366667
0.729167
0.520833
0.570833
0.745833
0.370833
0.233333
0.716667
0.391667
0.254167
0.354167
0.462500
0.162500
0.450000
0.387500
0.362500
0.587500
0.387500
0.125000
0.245833
0.120833
0.454167
0.395833
0.616667
0.483333
0.366667
0.366667
0.241667
0.487500
0.491667
0.470833
0.508333
0.850000
0.479167
0.354167
0.150000
0.854167
0.120833
0.612500
0.945833
0.883333
0.366667
0.237500
1.445833
0.379167
0.133333
0.725000
0.604167
0.120833
0.733333
0.616667
0.125000
0.483333
0.758333
0.604167
0.645833
0.258333
0.712500
0.154167
0.229167
0.500000
0.479167
0.587500
0.137500
0.612500
0.495833
0.237500
0.112500
0.737500
0.358333
0.970833
0.862500
0.745833
0.520833
0.350000
0.020833
0.495833
0.379167
0.112500
0.508333
0.245833
0.245833
0.375000
0.495833
0.120833
0.250000
0.120833
0.595833
0.504167
0.129167
0.379167
0.341667
0.508333
0.620833
0.354167
0.629167
0.362500
0.491667
0.770833
0.366667
0.383333
0.612500
0.491667
0.137500
0.120833
0.491667
0.491667
0.250000
0.254167
0.495833
0.116667
0.720833
0.154167
0.591667
0.004167
0.650000
0.362500
0.629167
0.866667
0.987500
0.600000
0.391667
0.008333
0.595833
0.250000
0.150000
0.720833
0.225000
0.741667
0.479167
0.250000
0.383333
0.495833
0.366667
0.241667
0.237500
0.495833
0.116667
0.475000
0.145833
0.950000
0.362500
0.370833
0.491667
0.525000
0.479167
0.341667
0.666667
0.470833
0.275000
0.966667
0.366667
0.620833
0.650000
0.241667
0.366667
0.491667
0.500000
0.866667
0.458333
0.366667
0.375000
0.395833
0.366667
0.341667
0.616667
0.150000
0.120833
0.579167
0.741667
0.395833
0.345833
0.608333
0.625000
0.262500
0.491667
0.587500
0.275000
0.245833
0.487500
0.375000
0.483333
0.379167
0.487500
0.604167
0.500000
0.120833
0.366667
0.241667
0.462500
0.612500
0.250000
0.625000
0.487500
0.470833
0.745833
0.120833
0.487500
0.370833
0.733333
0.604167
0.612500
0.470833
0.258333
0.258333
0.504167
0.620833
0.487500
0.604167
0.258333
0.379167
0.612500
0.354167
0.387500
0.225000
0.162500
0.366667
0.487500
0.625000
0.241667
0.254167
0.737500
0.258333
0.483333
0.133333
0.491667
0.125000
0.612500
0.587500
0.516667
0.462500
0.150000
0.470833
0.262500
0.391667
0.325000
0.600000
0.637500
0.379167
0.745833
0.579167
0.983333
0.737500
0.120833
0.475000
0.625000
0.229167
0.370833
0.241667
0.370833
0.487500
0.370833
0.491667
0.004167
0.720833
0.625000
0.104167
0.495833
0.950000
0.491667
0.491667
0.358333
0.487500
0.366667
0.708333
0.237500
0.495833
0.362500
0.733333
0.391667
0.616667
0.112500
0.987500
0.495833
0.120833
0.620833
0.612500
0.741667
0.612500
0.366667
0.850000
0.862500
0.854167
0.733333
0.379167
0.854167
0.233333
0.883333
0.250000
0.616667
0.733333
0.625000
0.366667
0.729167
0.470833
0.266667
0.129167
0.466667
0.250000
0.370833
0.608333
0.025000
0.741667
0.612500
0.129167
0.479167
0.504167
0.250000
0.341667
0.495833
0.487500
0.262500
0.491667
0.604167
0.479167
0.729167
0.270833
0.262500
0.958333
0.516667
0.587500
0.154167
0.466667
0.129167
0.629167
0.483333
0.854167
0.733333
0.883333
0.362500
0.366667
0.358333
0.362500
0.383333
0.500000
0.729167
0.733333
0.383333
0.350000
0.750000
0.729167
0.362500
0.245833
0.387500
0.358333
0.375000
0.504167
0.108333
0.375000
0.370833
0.725000
0.108333
0.258333
0.729167
0.270833
0.245833
0.241667
0.375000
0.250000
0.112500
1.220833
0.362500
0.379167
0.112500
0.858333
0.641667
0.375000
0.733333
0.116667
0.720833
0.650000
0.616667
0.245833
0.487500
0.112500
0.595833
0.145833
0.358333
1.079167
0.641667
0.237500
0.629167
0.250000
0.375000
0.350000
0.512500
1.212500
0.516667
0.245833
0.366667
0.608333
0.479167
0.016667
0.379167
0.475000
0.266667
0.370833
0.620833
0.616667
0.495833
0.483333
0.125000
0.620833
0.366667
0.495833
0.370833
0.862500
0.241667
0.741667
0.370833
0.108333
0.387500
0.475000
0.758333
0.733333
0.491667
0.495833
0.354167
0.254167
0.470833
0.283333
0.366667
0.366667
0.250000
0.237500
0.862500
0.354167
0.516667
0.250000
0.245833
0.620833
0.366667
0.491667
0.616667
0.608333
0.595833
0.762500
0.370833
0.608333
0.262500
0.837500
0.150000
0.737500
0.245833
0.370833
0.600000
0.354167
0.387500
0.116667
0.491667
0.737500
0.458333
0.391667
0.616667
0.600000
0.358333
0.370833
0.370833
0.150000
0.620833
0.225000
0.137500
0.633333
0.120833
0.500000
0.616667
0.245833
0.495833
0.379167
0.620833
0.483333
0.370833
0.620833
0.495833
0.250000
0.470833
0.629167
0.750000
0.370833
0.250000
0.479167
0.625000
0.637500
0.241667
0.754167
0.629167
0.370833
0.591667
0.633333
0.475000
0.145833
0.620833
0.487500
0.254167
0.379167
0.358333
0.241667
0.358333
0.395833
0.220833
0.512500
0.504167
0.483333
0.620833
0.966667
0.854167
0.125000
0.491667
0.137500
0.250000
0.587500
0.150000
0.612500
0.237500
0.345833
0.608333
0.729167
0.358333
0.483333
0.370833
0.262500
0.595833
0.154167
0.250000
0.495833
0.258333
0.337500
0.137500
0.387500
0.250000
0.108333
0.395833
0.241667
0.616667
0.629167
0.120833
0.383333
0.250000
0.470833
0.150000
0.362500
0.483333
0.008333
0.500000
0.612500
0.245833
0.250000
0.587500
0.150000
0.487500
0.862500
0.337500
0.520833
0.600000
0.475000
0.491667
0.345833
0.512500
0.366667
0.862500
0.370833
0.250000
0.612500
0.487500
0.229167
0.250000
0.241667
0.637500
0.745833
0.370833
0.379167
0.366667
0.258333
0.366667
0.366667
0.254167
0.975000
0.629167
8.470833
5.245833
4.825000
1.766667
2.104167
0.950000
0.875000
2.612500
0.916667
2.487500
0.916667
2.304167
2.675000
0.766667
2.541667
2.650000
0.658333
0.658333
1.329167
0.666667
0.666667
0.662500
0.554167
0.779167
0.662500
0.450000
0.254167
0.387500
0.229167
0.512500
0.787500
1.316667
0.654167
0.650000
0.650000
0.645833
0.641667
0.641667
0.650000
0.637500
0.645833
0.645833
0.645833
0.650000
0.641667
0.400000
0.241667
0.237500
0.400000
0.641667
0.654167
0.650000
0.650000
1.300000
0.650000
0.645833
0.641667
0.645833
0.662500
0.650000
0.645833
0.312500
0.462500
0.162500
0.366667
