0.404167
0.679167
0.675000
0.633333
0.620833
0.612500
0.562500
0.545833
0.562500
0.558333
0.558333
0.545833
0.554167
0.541667
0.537500
0.529167
0.537500
0.487500
0.566667
0.529167
0.529167
0.662500
0.800000
0.645833
0.541667
0.529167
0.529167
0.533333
0.625000
0.670833
0.604167
0.600000
0.587500
0.583333
0.554167
0.258333
0.295833
0.541667
0.525000
0.525000
0.516667
0.525000
0.525000
0.520833
0.525000
0.516667
0.529167
0.537500
0.537500
0.550000
0.541667
0.558333
0.554167
0.550000
0.533333
0.537500
0.554167
0.566667
0.558333
0.558333
0.558333
0.550000
0.545833
0.529167
0.533333
0.533333
0.533333
0.529167
0.529167
0.529167
0.554167
0.750000
0.662500
0.637500
0.637500
0.629167
0.612500
0.600000
0.604167
0.600000
0.591667
0.570833
0.554167
0.550000
0.591667
0.658333
0.629167
0.608333
0.591667
0.662500
0.641667
0.641667
0.629167
0.629167
0.608333
0.620833
0.625000
0.633333
0.620833
0.629167
0.191667
0.466667
0.512500
0.554167
0.145833
0.229167
0.270833
0.233333
0.370833
0.308333
0.337500
0.354167
0.512500
0.683333
0.354167
0.508333
0.500000
0.495833
0.500000
0.491667
0.500000
0.491667
0.491667
0.495833
0.495833
0.495833
0.495833
0.491667
0.741667
0.237500
0.483333
0.487500
0.491667
0.483333
0.529167
0.441667
0.487500
0.479167
0.479167
0.483333
0.483333
0.483333
0.483333
0.483333
0.487500
0.487500
0.491667
0.491667
0.491667
0.487500
0.487500
0.487500
0.491667
0.487500
0.491667
0.491667
0.491667
0.495833
0.491667
0.491667
0.504167
0.504167
0.508333
0.500000
0.504167
0.500000
0.504167
0.504167
0.500000
0.508333
0.508333
0.508333
0.512500
0.512500
0.504167
0.495833
0.495833
0.504167
0.500000
0.504167
0.500000
0.504167
0.495833
0.500000
0.500000
0.504167
0.504167
0.495833
0.504167
0.504167
0.504167
0.504167
0.504167
0.504167
0.508333
0.512500
0.504167
0.508333
0.500000
0.504167
0.500000
0.500000
0.504167
0.487500
0.500000
0.495833
0.500000
0.491667
0.491667
0.491667
0.495833
0.495833
0.491667
0.495833
0.495833
0.500000
0.500000
0.491667
0.500000
0.491667
0.495833
0.491667
0.495833
0.495833
0.500000
0.500000
0.495833
0.495833
0.495833
0.491667
0.495833
0.495833
0.495833
0.491667
0.491667
0.495833
0.495833
0.587500
0.891667
0.495833
0.495833
0.495833
0.487500
0.487500
0.487500
0.487500
0.491667
0.487500
0.487500
0.491667
0.495833
0.470833
0.516667
0.491667
0.495833
0.495833
0.495833
0.487500
0.491667
0.491667
0.495833
0.500000
0.491667
0.491667
0.495833
0.491667
0.491667
0.487500
0.487500
0.491667
0.491667
0.487500
0.487500
0.495833
0.495833
0.495833
0.637500
0.333333
0.495833
0.479167
0.495833
0.495833
0.487500
0.491667
0.495833
0.495833
0.491667
0.487500
0.487500
0.491667
0.487500
0.483333
0.487500
0.495833
0.491667
0.487500
0.491667
0.491667
0.491667
0.495833
0.491667
0.491667
0.495833
0.495833
0.495833
0.500000
0.495833
0.495833
0.500000
0.508333
0.500000
0.491667
0.495833
0.500000
0.495833
0.500000
0.500000
0.500000
0.500000
0.508333
0.516667
0.520833
0.516667
0.520833
0.504167
0.508333
0.508333
0.570833
0.200000
0.733333
0.495833
0.495833
0.495833
0.491667
0.491667
0.487500
0.491667
0.491667
0.491667
0.491667
0.491667
0.487500
0.491667
0.487500
0.491667
0.487500
0.491667
0.491667
0.495833
0.504167
0.504167
0.504167
0.504167
0.504167
0.508333
0.508333
0.508333
0.512500
0.512500
0.525000
0.529167
0.529167
0.520833
0.525000
0.512500
0.512500
0.512500
0.516667
0.520833
0.512500
0.525000
0.525000
0.529167
0.520833
0.516667
0.529167
0.529167
0.529167
0.525000
0.525000
0.545833
0.545833
0.537500
0.533333
0.525000
0.525000
0.537500
0.533333
0.529167
0.533333
0.533333
0.550000
0.600000
0.720833
0.645833
0.625000
0.620833
0.612500
0.616667
0.612500
0.604167
0.600000
0.587500
0.591667
0.566667
0.550000
0.541667
0.550000
0.554167
0.558333
0.558333
0.550000
0.562500
0.575000
0.562500
0.554167
1.087500
0.308333
0.212500
0.333333
0.204167
0.533333
0.525000
0.533333
0.520833
0.512500
0.520833
0.516667
0.608333
0.416667
0.516667
0.525000
0.512500
0.220833
0.291667
0.508333
0.508333
0.500000
0.504167
0.508333
0.508333
0.508333
0.512500
0.520833
0.529167
0.520833
0.516667
0.508333
0.508333
0.504167
0.500000
0.504167
0.508333
0.508333
0.508333
0.512500
0.504167
0.508333
0.512500
0.516667
0.508333
0.512500
0.512500
0.512500
0.516667
0.516667
0.516667
0.512500
0.508333
0.579167
0.616667
0.575000
0.554167
0.545833
0.537500
0.529167
0.520833
0.525000
0.525000
0.475000
0.454167
0.604167
0.508333
0.504167
0.495833
0.500000
0.500000
0.266667
0.229167
0.516667
0.512500
0.516667
0.508333
0.504167
0.508333
0.504167
0.504167
0.504167
0.500000
0.508333
0.504167
0.500000
0.500000
0.504167
0.504167
0.504167
0.504167
0.504167
0.504167
0.508333
0.508333
0.504167
0.504167
0.433333
0.600000
0.516667
0.529167
0.525000
0.525000
0.512500
0.520833
0.520833
0.516667
0.516667
0.508333
0.508333
0.504167
0.508333
0.504167
0.508333
0.500000
0.500000
0.504167
0.504167
0.504167
0.500000
0.516667
0.675000
0.341667
0.525000
0.520833
0.512500
0.512500
0.520833
0.516667
0.508333
0.512500
0.416667
0.604167
0.508333
0.508333
0.504167
0.504167
0.495833
0.500000
0.500000
0.491667
0.491667
0.362500
0.616667
0.500000
0.487500
0.495833
0.495833
0.500000
0.500000
0.495833
0.500000
0.504167
0.508333
0.504167
0.504167
0.512500
0.512500
0.512500
0.512500
0.504167
0.508333
0.512500
0.512500
0.516667
0.516667
0.512500
0.512500
0.512500
0.512500
0.512500
0.516667
0.516667
0.520833
0.516667
0.512500
0.516667
0.520833
0.516667
0.508333
0.512500
0.508333
0.508333
0.512500
0.508333
0.516667
0.512500
0.541667
0.566667
0.562500
0.550000
0.537500
0.525000
0.533333
0.525000
0.525000
0.516667
0.516667
0.516667
0.520833
0.516667
0.525000
0.516667
0.520833
0.520833
0.533333
0.525000
0.533333
0.520833
0.529167
0.700000
0.645833
0.620833
0.612500
0.595833
0.591667
0.587500
0.587500
0.566667
0.545833
0.529167
0.520833
0.529167
0.529167
0.529167
0.525000
0.520833
0.558333
0.729167
0.641667
0.633333
0.625000
0.612500
0.608333
0.600000
0.600000
0.591667
0.583333
0.554167
0.354167
0.187500
0.545833
0.545833
0.537500
0.545833
0.529167
0.533333
0.525000
0.525000
0.525000
0.525000
0.516667
0.516667
0.212500
0.320833
0.529167
0.525000
0.516667
0.512500
0.508333
0.512500
0.508333
0.520833
0.512500
0.525000
0.520833
0.179167
0.875000
0.537500
0.533333
0.529167
0.545833
0.529167
0.520833
0.520833
0.516667
0.512500
0.508333
0.500000
0.508333
0.504167
0.500000
0.504167
0.291667
0.212500
0.500000
0.387500
0.112500
0.504167
0.504167
0.504167
0.516667
0.545833
0.537500
0.533333
0.520833
0.525000
0.525000
0.520833
0.512500
0.508333
0.520833
0.516667
0.516667
0.508333
0.504167
0.508333
0.508333
0.516667
0.512500
0.520833
0.512500
0.520833
0.525000
0.520833
0.516667
0.512500
0.516667
0.512500
0.516667
0.529167
0.525000
0.520833
0.516667
0.512500
0.512500
0.512500
0.508333
0.500000
0.500000
0.504167
0.508333
0.504167
0.508333
0.504167
0.500000
0.504167
0.508333
0.516667
0.520833
0.525000
0.533333
0.525000
0.529167
0.525000
0.516667
0.520833
0.520833
0.520833
0.525000
0.525000
0.525000
0.525000
0.641667
0.666667
0.620833
0.604167
0.600000
0.600000
0.587500
0.587500
0.554167
0.533333
0.533333
0.612500
0.650000
0.604167
0.562500
0.554167
0.545833
0.537500
0.529167
0.525000
0.520833
0.533333
0.529167
0.533333
0.525000
0.529167
0.537500
0.537500
0.541667
0.545833
0.550000
0.562500
0.570833
0.566667
0.570833
0.570833
0.562500
0.566667
0.587500
0.770833
0.679167
0.662500
0.654167
0.637500
0.633333
0.620833
0.612500
0.583333
0.554167
0.541667
0.537500
0.533333
0.529167
0.533333
0.545833
0.562500
0.712500
0.670833
0.645833
0.441667
0.183333
0.637500
0.620833
0.600000
0.562500
0.579167
0.575000
0.554167
0.545833
0.537500
0.550000
0.541667
0.554167
0.541667
0.545833
0.550000
0.562500
0.558333
0.550000
0.550000
0.541667
0.558333
0.566667
0.562500
0.554167
0.558333
0.591667
0.583333
0.570833
0.562500
0.566667
0.570833
0.566667
0.604167
0.766667
0.679167
0.662500
0.645833
0.637500
0.629167
0.625000
0.595833
0.558333
0.595833
0.587500
0.562500
0.558333
0.558333
0.566667
0.575000
0.575000
0.562500
0.558333
0.591667
0.587500
0.583333
0.579167
0.570833
0.575000
0.575000
0.562500
0.558333
0.554167
0.579167
0.600000
0.595833
0.787500
0.695833
0.675000
0.662500
0.641667
0.645833
0.604167
0.570833
0.566667
0.570833
0.575000
0.562500
0.562500
0.554167
0.575000
0.566667
0.566667
0.566667
0.770833
0.387500
0.691667
0.433333
0.200000
0.616667
0.325000
0.262500
0.566667
0.545833
0.537500
0.533333
0.533333
0.616667
0.441667
0.316667
0.208333
0.220833
0.300000
0.520833
0.416667
0.100000
0.491667
0.537500
0.520833
0.512500
0.508333
0.508333
0.508333
0.504167
0.508333
0.508333
0.504167
0.504167
0.508333
0.512500
1.012500
0.508333
0.504167
1.012500
0.504167
0.504167
0.512500
0.508333
0.295833
0.216667
0.508333
0.504167
0.504167
0.500000
0.500000
0.495833
0.495833
0.500000
0.504167
0.491667
0.504167
0.504167
0.508333
0.462500
0.537500
0.495833
0.495833
0.416667
0.583333
0.495833
0.491667
0.495833
0.983333
0.491667
0.491667
0.495833
0.491667
0.491667
0.491667
0.491667
0.491667
0.483333
0.487500
0.491667
0.491667
0.487500
0.495833
0.491667
0.483333
0.491667
0.495833
0.495833
0.491667
0.500000
0.495833
0.487500
0.495833
0.491667
0.495833
0.491667
0.491667
0.491667
0.491667
0.495833
0.495833
0.495833
0.483333
0.491667
0.491667
0.491667
0.487500
0.483333
0.237500
0.733333
0.441667
0.204167
0.270833
0.845833
0.383333
0.800000
0.495833
0.495833
0.491667
0.483333
0.375000
0.604167
0.508333
0.504167
0.495833
0.491667
0.495833
0.487500
0.491667
0.479167
0.483333
0.483333
0.483333
0.487500
0.483333
0.483333
0.483333
0.487500
0.487500
0.487500
0.487500
0.483333
0.487500
0.495833
0.495833
0.491667
0.495833
0.495833
0.495833
0.491667
0.491667
0.487500
0.495833
0.491667
0.495833
0.495833
0.491667
0.487500
0.483333
0.491667
0.491667
0.491667
0.491667
0.479167
0.483333
0.487500
0.483333
0.479167
0.479167
0.479167
0.479167
0.479167
0.479167
0.737500
0.554167
0.604167
0.475000
0.495833
0.495833
0.487500
0.475000
0.487500
0.491667
0.500000
0.495833
0.491667
0.487500
0.491667
0.487500
0.491667
0.479167
0.479167
0.479167
0.475000
0.479167
0.479167
0.475000
0.470833
0.462500
0.491667
0.487500
0.483333
0.658333
0.312500
0.479167
0.483333
0.479167
0.475000
0.479167
0.470833
0.470833
0.470833
0.475000
0.470833
0.470833
0.470833
0.470833
0.475000
0.475000
0.470833
0.470833
0.470833
0.475000
0.479167
0.483333
0.483333
0.483333
0.479167
0.479167
0.483333
0.483333
0.483333
0.479167
0.483333
0.487500
0.479167
0.483333
0.483333
0.483333
0.483333
0.483333
0.483333
0.475000
0.483333
0.500000
0.504167
0.504167
0.500000
0.491667
0.491667
0.491667
0.483333
0.487500
0.483333
0.479167
0.475000
0.479167
0.475000
0.475000
0.475000
0.475000
0.475000
0.479167
0.470833
0.479167
0.479167
0.308333
0.650000
0.483333
0.950000
0.479167
0.487500
0.491667
0.491667
0.487500
0.487500
0.483333
0.479167
0.475000
0.483333
0.479167
0.475000
0.475000
0.470833
0.470833
0.470833
0.470833
0.470833
0.470833
0.466667
0.475000
0.470833
0.466667
