0.645833
0.483333
0.558333
0.558333
0.558333
0.562500
0.570833
0.558333
0.562500
0.558333
0.562500
0.566667
0.562500
0.554167
0.562500
0.558333
0.566667
0.562500
0.316667
0.241667
0.558333
0.558333
0.570833
0.566667
0.558333
0.558333
0.562500
0.562500
0.570833
0.558333
0.562500
0.562500
0.558333
0.570833
0.570833
0.566667
0.562500
0.562500
0.566667
0.570833
0.562500
0.562500
0.575000
0.575000
0.562500
0.566667
0.562500
0.570833
0.570833
0.566667
0.566667
0.566667
0.570833
0.566667
0.566667
0.220833
0.345833
0.562500
0.575000
0.562500
0.562500
0.566667
0.562500
0.570833
0.570833
0.562500
0.562500
0.566667
0.566667
0.575000
0.562500
0.562500
0.662500
0.475000
0.570833
0.575000
0.229167
0.470833
0.425000
0.566667
0.575000
0.562500
0.562500
0.562500
0.566667
0.570833
0.562500
0.562500
0.562500
0.562500
0.566667
0.570833
0.562500
0.562500
0.562500
0.570833
0.566667
0.562500
0.562500
0.562500
0.566667
0.570833
0.562500
0.566667
0.562500
0.566667
0.570833
0.562500
0.566667
0.754167
0.375000
0.570833
0.708333
0.416667
0.562500
0.566667
0.570833
0.562500
0.562500
0.562500
0.562500
0.566667
0.570833
0.562500
0.566667
0.562500
0.562500
0.566667
0.570833
0.562500
0.562500
0.562500
0.566667
0.570833
0.562500
0.562500
0.562500
0.562500
0.570833
0.562500
0.562500
0.562500
0.558333
0.570833
0.275000
0.287500
0.295833
0.258333
0.525000
0.212500
0.404167
0.720833
0.400000
0.566667
0.562500
0.566667
0.570833
0.562500
0.562500
0.562500
0.570833
0.566667
0.562500
0.562500
0.566667
0.566667
0.562500
0.558333
0.562500
0.566667
0.566667
0.566667
0.558333
0.562500
0.562500
0.566667
0.566667
0.562500
0.562500
0.562500
0.562500
0.570833
0.295833
0.262500
0.270833
0.291667
0.566667
0.562500
0.566667
0.350000
0.216667
0.566667
0.562500
0.562500
0.566667
0.570833
0.566667
0.562500
0.566667
0.570833
0.566667
0.562500
0.566667
0.570833
0.570833
0.562500
0.562500
0.566667
0.566667
0.570833
0.570833
0.562500
0.562500
0.566667
0.570833
0.562500
0.562500
0.566667
0.566667
0.566667
0.566667
0.562500
0.558333
0.566667
0.562500
0.570833
0.562500
0.562500
0.562500
0.566667
0.566667
0.570833
0.562500
0.562500
0.566667
0.570833
0.562500
0.562500
0.562500
0.566667
0.570833
0.562500
0.562500
0.562500
0.566667
0.570833
0.562500
0.562500
0.562500
0.566667
0.570833
0.566667
0.562500
0.566667
0.566667
0.566667
0.575000
0.575000
0.562500
0.570833
0.570833
0.570833
0.575000
0.566667
0.566667
0.570833
0.566667
0.575000
0.570833
0.566667
0.570833
0.562500
0.570833
0.575000
0.566667
0.566667
0.566667
0.566667
0.570833
0.562500
0.566667
0.566667
0.566667
0.566667
0.570833
0.562500
0.566667
0.566667
0.562500
0.566667
0.575000
0.566667
0.562500
0.562500
0.566667
0.562500
0.566667
0.570833
0.562500
0.562500
0.562500
0.562500
0.562500
0.570833
0.354167
0.270833
0.645833
0.408333
0.554167
0.195833
0.379167
0.220833
0.545833
0.412500
0.333333
0.533333
0.687500
0.500000
0.883333
0.108333
0.391667
0.229167
0.500000
0.666667
0.470833
0.245833
0.558333
0.558333
0.570833
0.554167
0.558333
0.558333
0.566667
0.566667
0.558333
0.562500
0.562500
0.566667
0.562500
0.558333
0.558333
0.566667
0.566667
0.562500
0.558333
0.562500
0.562500
0.570833
0.558333
0.562500
0.562500
0.566667
0.570833
0.562500
0.562500
0.562500
0.566667
0.562500
0.562500
0.562500
0.562500
0.570833
0.562500
0.558333
0.562500
0.566667
0.566667
0.562500
0.562500
0.562500
0.562500
0.570833
0.562500
0.562500
0.562500
0.566667
0.570833
0.566667
0.566667
0.562500
0.291667
0.279167
0.575000
0.558333
0.566667
0.566667
0.525000
0.616667
0.566667
0.570833
0.570833
0.575000
0.562500
0.566667
0.566667
0.570833
0.566667
0.562500
0.562500
0.570833
0.570833
0.562500
0.562500
0.562500
0.566667
0.570833
0.562500
0.562500
0.558333
0.566667
0.570833
0.558333
0.562500
0.562500
0.566667
0.566667
0.562500
0.558333
0.562500
0.562500
0.566667
0.562500
0.558333
0.562500
0.566667
0.562500
0.562500
0.558333
0.562500
0.562500
0.570833
0.566667
0.562500
0.562500
0.566667
0.566667
0.570833
0.566667
0.562500
0.566667
0.566667
0.575000
0.562500
0.566667
0.570833
0.562500
0.575000
0.570833
0.566667
0.566667
0.566667
0.570833
0.570833
0.566667
0.566667
0.566667
0.570833
0.570833
0.570833
0.562500
0.566667
0.566667
0.725000
0.420833
0.354167
0.925000
0.229167
0.591667
0.712500
0.562500
0.562500
0.579167
0.558333
0.558333
0.558333
0.562500
0.570833
0.558333
0.558333
0.562500
0.566667
0.570833
0.912500
0.212500
0.562500
0.566667
0.562500
0.558333
0.562500
0.566667
0.566667
0.558333
0.562500
0.562500
0.566667
0.566667
0.558333
0.562500
0.558333
0.566667
0.566667
0.562500
0.562500
0.566667
0.562500
0.562500
0.558333
0.562500
0.566667
0.566667
0.558333
0.562500
0.566667
0.566667
0.558333
0.562500
0.558333
0.566667
0.562500
0.558333
0.562500
0.562500
0.570833
0.558333
0.562500
0.566667
0.562500
0.566667
0.562500
0.562500
0.562500
0.562500
0.570833
0.562500
0.562500
0.562500
0.562500
0.566667
0.566667
0.566667
0.562500
0.562500
0.566667
0.566667
0.562500
0.562500
0.562500
0.562500
0.570833
0.566667
0.562500
0.562500
0.562500
0.566667
0.566667
0.483333
0.545833
0.662500
0.558333
0.566667
0.570833
0.562500
0.558333
0.562500
0.566667
0.566667
0.558333
0.558333
0.562500
0.566667
0.558333
0.558333
0.562500
0.562500
0.566667
0.562500
0.558333
0.562500
0.562500
0.562500
0.566667
0.562500
0.558333
0.562500
0.562500
0.566667
0.558333
0.562500
0.558333
0.566667
0.566667
0.558333
0.562500
0.562500
0.562500
0.570833
0.558333
0.562500
0.558333
0.566667
0.566667
0.558333
0.558333
0.562500
0.654167
0.279167
0.375000
0.379167
0.641667
0.483333
0.570833
0.558333
0.562500
0.562500
0.566667
0.562500
0.558333
0.562500
0.566667
0.570833
0.558333
0.562500
0.562500
0.566667
0.558333
0.562500
0.562500
0.566667
0.570833
0.562500
0.562500
0.562500
0.570833
0.566667
0.562500
0.566667
0.566667
0.566667
0.562500
0.562500
0.566667
0.566667
0.570833
0.562500
0.562500
0.566667
0.566667
0.562500
0.562500
0.562500
0.566667
0.566667
0.566667
0.562500
0.562500
0.562500
0.562500
0.570833
0.558333
0.562500
0.562500
0.562500
0.566667
0.562500
0.562500
0.825000
0.866667
0.562500
0.566667
0.566667
0.570833
0.562500
0.566667
0.562500
0.566667
0.570833
0.562500
0.562500
0.562500
0.570833
0.562500
0.562500
0.558333
0.566667
0.566667
0.558333
0.562500
0.558333
0.562500
0.566667
0.558333
0.562500
0.558333
0.562500
0.566667
0.266667
0.300000
0.558333
0.562500
0.566667
0.566667
0.562500
0.562500
0.566667
0.570833
0.562500
0.562500
0.566667
0.570833
0.562500
0.566667
0.566667
0.570833
0.570833
0.562500
0.562500
0.566667
0.575000
0.266667
0.295833
0.562500
0.566667
0.566667
0.562500
0.562500
0.566667
0.566667
0.570833
0.562500
0.562500
0.566667
0.566667
0.570833
0.562500
0.562500
0.566667
0.395833
0.741667
0.208333
0.354167
0.562500
0.566667
0.570833
0.562500
0.562500
0.566667
0.566667
0.570833
0.562500
0.566667
0.566667
0.570833
0.566667
0.562500
0.562500
0.570833
0.575000
0.566667
0.566667
0.570833
0.295833
0.275000
0.587500
0.587500
0.587500
0.587500
0.608333
0.600000
0.595833
0.604167
0.608333
0.612500
0.612500
0.616667
0.616667
0.620833
0.633333
0.620833
0.612500
0.612500
0.612500
0.604167
0.600000
0.604167
0.608333
0.608333
0.604167
0.595833
0.600000
0.600000
0.591667
0.591667
0.591667
0.591667
0.587500
0.579167
0.587500
0.583333
0.579167
0.579167
0.583333
0.570833
0.579167
0.579167
0.583333
0.579167
0.575000
0.579167
0.583333
0.579167
0.583333
0.591667
0.587500
0.583333
0.587500
0.595833
0.604167
0.604167
0.600000
0.600000
0.604167
0.604167
0.608333
0.616667
0.616667
0.629167
0.620833
0.620833
0.625000
0.629167
0.620833
0.616667
0.616667
0.616667
0.604167
0.604167
0.591667
0.604167
0.591667
0.583333
0.579167
0.587500
0.579167
0.575000
0.566667
0.570833
0.579167
0.566667
0.566667
0.570833
0.575000
0.562500
0.562500
0.566667
0.566667
0.570833
0.562500
0.562500
0.566667
0.575000
0.562500
0.562500
0.566667
0.566667
0.562500
0.562500
0.562500
0.566667
0.750000
0.379167
0.670833
0.370833
0.650000
0.566667
0.562500
0.562500
0.562500
0.566667
0.570833
0.566667
0.566667
0.562500
0.570833
0.566667
0.562500
0.566667
0.566667
0.658333
0.229167
0.245833
0.562500
0.558333
0.562500
0.570833
0.566667
0.558333
0.562500
0.562500
0.566667
0.558333
0.558333
0.562500
0.562500
0.562500
0.558333
0.558333
0.558333
0.562500
0.566667
0.554167
0.558333
0.558333
0.562500
0.562500
0.554167
0.558333
0.558333
0.562500
0.554167
0.558333
0.558333
0.558333
0.562500
0.562500
0.558333
0.558333
0.558333
0.566667
0.558333
0.554167
0.562500
0.562500
0.566667
0.558333
0.558333
0.562500
0.566667
0.562500
0.558333
0.558333
0.558333
0.604167
0.516667
0.554167
0.558333
0.562500
0.566667
0.558333
0.558333
0.554167
0.562500
0.566667
0.554167
0.558333
0.562500
0.562500
0.558333
0.558333
0.558333
0.562500
0.562500
0.558333
0.558333
0.562500
0.562500
0.558333
0.554167
0.562500
0.562500
0.562500
0.558333
0.558333
0.562500
0.562500
0.558333
0.558333
0.558333
0.562500
0.566667
0.558333
0.558333
0.562500
0.562500
0.566667
0.562500
0.562500
0.562500
0.566667
0.562500
0.562500
0.562500
0.562500
0.570833
0.562500
0.562500
0.562500
0.566667
0.570833
0.558333
0.562500
0.562500
0.566667
0.570833
0.558333
0.566667
0.562500
0.566667
0.570833
0.562500
0.562500
0.562500
0.566667
0.566667
0.562500
0.558333
0.562500
0.566667
0.562500
0.562500
0.562500
0.562500
0.570833
0.558333
0.562500
0.562500
0.566667
0.562500
0.558333
0.562500
0.562500
0.566667
0.558333
0.558333
0.558333
0.562500
0.566667
0.262500
0.295833
0.562500
0.562500
0.570833
0.420833
0.445833
0.262500
0.395833
0.733333
0.270833
0.858333
0.562500
0.558333
0.566667
0.566667
0.562500
0.558333
0.566667
0.566667
0.558333
0.558333
0.416667
0.279167
0.400000
0.312500
0.416667
0.529167
0.404167
0.604167
0.445833
0.670833
0.554167
0.554167
0.562500
0.562500
0.550000
0.558333
0.558333
0.558333
0.554167
0.558333
0.554167
0.429167
0.687500
0.554167
0.558333
0.562500
0.562500
0.554167
0.554167
0.558333
0.558333
0.562500
0.554167
0.554167
0.558333
0.562500
0.562500
0.558333
0.554167
0.562500
0.562500
0.558333
0.558333
0.558333
0.562500
0.558333
0.558333
0.558333
0.562500
0.566667
0.558333
0.558333
0.562500
0.562500
0.558333
0.558333
0.562500
0.558333
0.566667
0.558333
0.558333
0.241667
0.316667
0.566667
0.554167
0.562500
0.562500
0.566667
