0.545833
0.545833
0.545833
0.541667
0.520833
0.575000
0.525000
0.700000
0.408333
0.541667
0.379167
0.716667
0.545833
0.541667
0.550000
0.541667
0.545833
0.545833
0.541667
0.550000
0.541667
0.545833
0.545833
0.545833
0.550000
0.545833
0.541667
0.545833
0.545833
0.550000
0.545833
0.545833
0.541667
0.550000
0.550000
0.541667
0.545833
0.545833
0.545833
0.545833
0.545833
0.545833
0.545833
0.545833
0.550000
0.550000
0.545833
0.545833
0.545833
0.550000
0.550000
0.545833
0.545833
0.541667
0.550000
0.550000
0.545833
0.545833
0.541667
0.550000
0.550000
0.545833
0.545833
0.541667
0.545833
0.545833
0.270833
0.279167
0.545833
0.541667
0.545833
0.545833
0.550000
0.545833
0.545833
0.541667
0.545833
0.545833
0.550000
0.545833
0.545833
0.541667
0.545833
0.545833
0.545833
0.541667
0.545833
0.541667
0.550000
0.545833
0.541667
0.541667
0.545833
0.550000
0.541667
0.545833
0.541667
0.541667
0.550000
0.541667
0.229167
0.312500
0.479167
0.608333
0.545833
0.541667
0.545833
0.537500
0.550000
0.541667
0.704167
0.383333
0.329167
0.337500
0.366667
0.391667
0.295833
0.466667
0.541667
0.545833
0.550000
0.545833
0.545833
0.429167
0.658333
0.550000
0.541667
0.545833
0.545833
0.554167
0.545833
0.545833
0.545833
0.545833
0.550000
0.545833
0.545833
0.545833
0.545833
0.554167
0.545833
0.545833
0.545833
0.550000
0.550000
0.550000
0.200000
0.345833
0.545833
0.545833
0.550000
0.550000
0.545833
0.541667
0.550000
0.550000
0.545833
0.545833
0.545833
0.550000
0.554167
0.545833
0.545833
0.545833
0.550000
0.545833
0.554167
0.541667
0.550000
0.545833
0.550000
0.545833
0.550000
0.541667
0.545833
0.541667
0.545833
0.550000
0.545833
0.545833
0.541667
0.545833
0.554167
0.550000
0.545833
0.545833
0.550000
0.550000
0.550000
0.545833
0.545833
0.545833
0.550000
0.554167
0.550000
0.545833
0.550000
0.550000
0.554167
1.095833
0.554167
0.554167
0.554167
0.550000
0.550000
0.550000
0.554167
0.554167
0.554167
0.550000
0.545833
0.550000
0.550000
0.554167
0.545833
0.545833
0.545833
0.550000
0.550000
0.545833
0.541667
0.545833
0.545833
0.550000
0.545833
0.545833
0.283333
0.262500
0.545833
0.550000
0.545833
0.545833
0.541667
0.545833
0.550000
0.554167
0.545833
0.545833
0.545833
0.550000
0.550000
0.541667
0.550000
0.550000
0.545833
0.550000
0.545833
0.545833
0.554167
0.545833
0.550000
0.545833
0.554167
0.545833
0.550000
0.545833
0.550000
0.550000
0.545833
0.545833
0.545833
0.554167
0.545833
0.545833
0.550000
0.550000
0.554167
0.550000
0.550000
0.550000
0.554167
0.545833
0.545833
0.550000
0.554167
0.545833
0.545833
0.545833
0.550000
0.545833
0.545833
0.541667
0.545833
0.550000
0.550000
0.541667
0.541667
0.545833
0.545833
0.550000
0.541667
0.545833
0.541667
0.545833
0.545833
0.545833
0.541667
0.545833
0.545833
0.545833
0.545833
0.545833
0.545833
0.550000
0.545833
0.545833
0.545833
0.550000
0.550000
0.554167
0.545833
0.550000
0.545833
0.550000
0.554167
0.545833
0.550000
0.545833
0.550000
0.554167
0.545833
0.550000
0.545833
0.550000
0.554167
0.545833
0.550000
0.050000
0.495833
0.554167
0.545833
0.550000
0.545833
0.545833
0.554167
0.554167
0.550000
0.545833
0.545833
0.550000
0.545833
0.554167
0.545833
0.545833
0.550000
0.545833
0.554167
0.545833
0.545833
0.545833
0.550000
0.545833
0.554167
0.545833
0.545833
0.550000
0.554167
0.545833
0.550000
0.545833
0.554167
0.554167
0.550000
0.550000
0.550000
0.558333
0.550000
0.550000
0.550000
0.558333
0.241667
0.312500
0.550000
0.550000
0.550000
0.554167
0.554167
0.545833
0.550000
0.550000
0.554167
0.550000
0.545833
0.550000
0.545833
0.554167
0.545833
0.550000
0.545833
0.550000
0.550000
0.550000
0.437500
0.666667
0.554167
0.545833
0.554167
0.550000
0.554167
0.550000
0.550000
0.545833
0.554167
0.554167
0.550000
0.550000
0.550000
0.554167
0.550000
0.550000
0.545833
0.550000
0.554167
0.550000
0.550000
0.545833
0.545833
0.554167
0.550000
0.545833
0.545833
0.608333
0.158333
0.329167
0.291667
0.258333
0.279167
0.270833
0.545833
0.550000
0.550000
0.545833
0.550000
0.545833
0.545833
0.554167
0.550000
0.545833
0.550000
0.545833
0.550000
0.558333
0.550000
0.558333
0.545833
0.554167
0.554167
0.554167
0.550000
0.550000
0.554167
0.558333
0.554167
0.550000
0.554167
0.550000
0.554167
0.558333
0.554167
0.550000
0.554167
0.558333
0.554167
0.554167
0.550000
0.554167
0.554167
0.550000
0.325000
0.225000
0.550000
0.550000
0.554167
0.554167
0.550000
0.545833
0.550000
0.558333
0.545833
0.550000
0.545833
0.550000
0.558333
0.545833
0.545833
0.533333
0.583333
0.245833
0.312500
0.562500
0.566667
0.562500
0.170833
0.641667
0.333333
0.575000
0.575000
0.575000
0.566667
0.570833
0.562500
0.566667
0.566667
0.304167
0.258333
0.566667
0.562500
0.558333
0.566667
0.558333
0.562500
0.566667
0.554167
0.383333
0.170833
0.487500
0.633333
0.558333
0.558333
0.558333
0.558333
0.554167
0.554167
0.558333
0.550000
0.550000
0.554167
0.554167
0.545833
0.545833
0.658333
0.437500
0.545833
0.541667
0.541667
0.550000
0.541667
0.537500
0.541667
0.545833
0.541667
0.541667
0.537500
0.537500
0.541667
0.545833
0.533333
0.537500
0.504167
0.325000
0.245833
0.212500
0.362500
0.220833
0.283333
0.487500
0.383333
0.366667
0.379167
0.233333
0.212500
0.120833
0.433333
0.416667
0.666667
0.304167
0.312500
0.387500
0.216667
0.504167
0.550000
0.537500
0.541667
0.537500
0.541667
0.545833
0.537500
0.537500
0.541667
0.541667
0.545833
0.533333
0.537500
0.537500
0.541667
0.537500
0.537500
0.533333
0.537500
0.545833
0.533333
0.533333
0.537500
0.541667
0.537500
0.533333
0.533333
0.537500
0.541667
0.533333
0.533333
0.529167
0.537500
0.537500
0.529167
0.529167
0.533333
0.533333
0.533333
0.529167
0.529167
0.325000
0.204167
0.537500
0.529167
0.529167
0.529167
0.533333
0.533333
0.529167
0.529167
0.533333
0.537500
0.529167
0.529167
0.558333
0.516667
0.525000
0.537500
0.537500
0.537500
0.537500
0.541667
0.541667
0.541667
0.533333
0.533333
0.537500
0.541667
0.537500
0.537500
0.533333
0.541667
0.537500
0.537500
0.533333
0.537500
0.541667
0.533333
0.533333
0.533333
0.533333
0.541667
0.533333
0.529167
0.533333
0.533333
0.541667
0.533333
0.529167
0.533333
0.533333
0.537500
0.533333
0.533333
0.533333
0.533333
0.537500
0.533333
0.533333
0.533333
0.533333
0.537500
0.533333
0.529167
0.533333
0.537500
0.529167
0.237500
0.300000
0.537500
0.537500
0.104167
0.254167
0.337500
0.383333
0.541667
0.537500
0.541667
0.541667
0.537500
0.537500
0.537500
0.541667
0.541667
0.533333
0.537500
0.637500
0.441667
0.458333
0.616667
0.533333
0.537500
0.545833
0.533333
0.537500
0.533333
0.537500
0.541667
0.533333
0.533333
0.533333
0.537500
0.537500
0.541667
0.529167
0.533333
0.533333
0.537500
0.537500
0.533333
0.533333
0.533333
0.533333
0.537500
0.533333
0.533333
0.533333
0.537500
0.537500
0.533333
0.533333
0.533333
0.533333
0.537500
0.533333
0.533333
0.533333
0.533333
0.537500
0.533333
0.529167
0.533333
0.533333
0.533333
0.537500
0.533333
0.529167
0.533333
0.533333
0.537500
0.537500
0.533333
0.533333
0.537500
0.537500
0.533333
0.533333
0.533333
0.533333
0.537500
0.537500
0.533333
0.533333
0.537500
0.541667
0.533333
0.537500
0.533333
0.541667
0.541667
0.537500
0.533333
0.533333
0.541667
0.537500
0.541667
0.537500
0.533333
0.537500
0.537500
0.541667
0.533333
0.537500
0.537500
0.533333
0.541667
0.537500
0.537500
0.537500
0.537500
0.537500
0.537500
0.537500
0.537500
0.541667
0.541667
0.537500
0.537500
0.537500
0.537500
0.541667
0.537500
0.537500
0.537500
0.658333
0.420833
0.537500
0.541667
0.816667
0.262500
0.537500
0.533333
0.541667
0.541667
0.537500
0.537500
0.537500
0.541667
0.541667
0.537500
0.537500
0.537500
0.541667
0.533333
0.533333
0.537500
0.537500
0.541667
0.541667
0.533333
0.533333
0.537500
0.537500
0.537500
0.537500
0.533333
0.533333
0.541667
0.537500
0.537500
0.533333
0.537500
0.541667
0.504167
0.575000
0.537500
0.537500
0.541667
0.537500
0.537500
0.537500
0.537500
0.541667
0.537500
0.537500
0.537500
0.537500
0.541667
0.537500
0.537500
0.541667
0.541667
0.541667
0.537500
0.537500
0.537500
0.545833
0.537500
0.533333
0.537500
0.537500
0.541667
0.541667
0.537500
0.537500
0.533333
0.541667
0.541667
0.533333
0.537500
0.537500
0.541667
0.537500
0.537500
0.533333
0.537500
0.541667
0.537500
0.537500
0.537500
0.537500
0.541667
0.537500
0.541667
0.254167
0.425000
0.391667
0.229167
0.320833
0.533333
0.541667
0.537500
0.512500
0.566667
0.545833
0.541667
0.541667
0.537500
0.545833
0.429167
0.654167
0.537500
0.541667
0.545833
0.541667
0.537500
0.545833
0.545833
0.545833
0.541667
0.537500
0.541667
0.541667
0.545833
0.537500
0.541667
0.537500
0.545833
0.541667
0.537500
0.537500
0.537500
0.545833
0.537500
0.537500
0.537500
0.537500
0.545833
0.537500
0.537500
0.537500
0.541667
0.537500
0.537500
0.537500
0.541667
0.545833
0.495833
0.570833
0.537500
0.537500
0.541667
0.545833
0.533333
0.537500
0.537500
0.541667
0.541667
0.537500
0.541667
0.541667
0.541667
0.541667
0.545833
0.541667
0.541667
0.541667
0.541667
0.541667
0.550000
0.541667
0.541667
0.541667
0.541667
0.545833
0.408333
0.133333
0.545833
0.541667
0.545833
0.541667
0.541667
0.541667
0.545833
0.541667
0.541667
0.545833
0.550000
0.541667
0.545833
0.541667
0.554167
0.541667
0.541667
0.545833
0.545833
0.550000
0.541667
0.541667
0.541667
0.550000
0.541667
0.241667
0.300000
0.537500
0.545833
0.545833
0.541667
0.537500
0.541667
0.541667
0.541667
0.541667
0.541667
0.541667
0.541667
0.541667
0.541667
0.541667
0.545833
0.541667
0.537500
0.541667
0.545833
0.541667
0.541667
0.541667
0.541667
0.545833
0.545833
0.545833
0.537500
0.541667
0.545833
0.545833
0.545833
0.541667
0.541667
0.545833
0.550000
0.541667
0.545833
0.541667
0.545833
0.545833
0.541667
0.545833
0.541667
0.541667
0.545833
0.545833
0.545833
0.541667
0.541667
0.545833
0.279167
0.262500
0.541667
0.541667
0.545833
0.541667
0.537500
0.541667
0.541667
0.550000
0.537500
0.541667
0.541667
0.541667
0.545833
0.545833
0.545833
0.537500
0.545833
0.550000
0.541667
0.545833
0.541667
0.545833
0.550000
0.545833
0.541667
0.545833
0.545833
0.550000
0.541667
0.545833
0.545833
0.545833
0.550000
0.541667
0.541667
0.550000
0.545833
0.545833
0.541667
0.545833
0.545833
0.550000
0.550000
0.545833
0.545833
0.545833
0.550000
0.545833
0.541667
0.545833
0.545833
0.550000
0.541667
0.541667
0.541667
0.550000
0.550000
0.541667
0.545833
0.541667
0.545833
0.550000
0.541667
0.545833
0.541667
0.545833
0.545833
0.545833
0.545833
0.545833
0.545833
0.545833
0.595833
0.491667
0.545833
0.545833
0.545833
0.541667
0.541667
0.545833
0.550000
0.545833
0.545833
0.541667
0.545833
0.550000
0.545833
0.541667
0.550000
0.545833
0.554167
0.541667
0.545833
0.550000
0.550000
0.545833
0.545833
0.550000
0.550000
0.545833
0.545833
0.545833
0.545833
0.550000
0.541667
0.545833
0.541667
0.545833
0.541667
0.545833
0.541667
0.541667
0.545833
0.550000
0.541667
0.541667
0.545833
0.545833
0.545833
0.545833
0.541667
