0.525000
0.525000
0.525000
0.520833
0.525000
0.520833
0.558333
0.508333
0.525000
0.525000
0.520833
0.525000
0.525000
0.529167
0.529167
0.525000
0.525000
0.525000
0.525000
0.529167
0.525000
0.529167
0.525000
0.525000
0.525000
0.525000
0.525000
0.525000
0.525000
0.533333
0.525000
0.525000
0.525000
0.525000
0.525000
0.529167
0.525000
0.525000
0.529167
0.520833
0.529167
0.554167
0.512500
0.525000
0.525000
0.558333
0.508333
0.554167
0.508333
0.525000
0.558333
0.508333
0.525000
0.525000
0.525000
0.525000
0.529167
0.525000
0.525000
0.525000
0.525000
0.562500
0.508333
0.525000
0.525000
0.525000
0.558333
0.508333
0.525000
0.525000
0.525000
0.525000
0.525000
0.529167
0.525000
0.525000
0.525000
0.562500
0.512500
0.554167
0.508333
0.525000
0.558333
0.512500
0.525000
0.525000
0.525000
0.558333
0.512500
0.525000
0.525000
0.525000
0.533333
0.525000
0.529167
0.529167
0.525000
0.529167
0.529167
0.529167
0.529167
0.525000
0.562500
0.512500
0.554167
0.512500
0.520833
0.562500
0.512500
0.525000
0.525000
0.525000
0.558333
0.512500
0.554167
0.508333
0.525000
0.529167
0.525000
0.558333
0.508333
0.525000
0.533333
0.525000
0.529167
0.525000
0.525000
0.529167
0.529167
0.525000
0.525000
0.525000
0.558333
0.512500
0.558333
0.512500
0.525000
0.558333
0.512500
0.529167
0.525000
0.558333
0.512500
0.529167
0.520833
0.558333
0.512500
0.529167
0.520833
0.558333
0.512500
0.529167
0.520833
0.533333
0.387500
0.670833
0.512500
0.558333
0.512500
0.558333
0.512500
0.554167
0.512500
0.558333
0.508333
0.529167
0.525000
0.525000
0.520833
0.558333
0.508333
0.525000
0.525000
0.558333
0.508333
0.525000
0.525000
0.558333
0.508333
0.558333
0.508333
0.525000
0.525000
0.520833
0.554167
0.508333
0.525000
0.554167
0.508333
0.525000
0.520833
0.554167
0.508333
0.550000
0.508333
0.520833
0.550000
0.508333
0.520833
0.550000
0.508333
0.545833
0.508333
0.545833
0.512500
0.545833
0.508333
0.520833
0.550000
0.508333
0.525000
0.520833
0.550000
0.508333
0.520833
0.550000
0.508333
0.550000
0.508333
0.520833
0.520833
0.554167
0.504167
0.520833
0.525000
0.550000
0.508333
0.545833
0.504167
0.525000
0.550000
0.508333
0.516667
0.520833
0.520833
0.550000
0.508333
0.520833
0.516667
0.520833
0.554167
0.504167
0.520833
0.525000
0.520833
0.529167
0.520833
0.550000
0.508333
0.520833
0.550000
0.508333
0.520833
0.520833
0.554167
0.508333
0.541667
0.512500
0.550000
0.504167
0.525000
0.545833
0.508333
0.550000
0.508333
0.550000
0.508333
0.520833
0.520833
0.525000
0.525000
0.525000
0.516667
0.520833
0.554167
0.508333
0.516667
0.520833
0.520833
0.550000
0.504167
0.520833
0.520833
0.520833
0.550000
0.508333
0.520833
0.525000
0.520833
0.525000
0.520833
0.520833
0.520833
0.550000
0.508333
0.520833
0.516667
0.520833
0.550000
0.508333
0.520833
0.520833
0.520833
0.520833
0.525000
0.520833
0.516667
0.520833
0.520833
0.520833
0.525000
0.516667
0.520833
0.525000
0.520833
0.520833
0.520833
0.516667
0.525000
0.520833
0.520833
0.520833
0.520833
0.525000
0.525000
0.520833
0.520833
0.520833
0.520833
0.525000
0.520833
0.520833
0.516667
0.520833
0.525000
0.520833
0.520833
0.520833
0.520833
0.520833
0.525000
0.520833
0.525000
0.520833
0.520833
0.558333
0.504167
0.550000
0.504167
0.516667
0.558333
0.508333
0.550000
0.504167
0.525000
0.525000
0.520833
0.554167
0.504167
0.525000
0.525000
0.525000
0.525000
0.525000
0.520833
0.520833
0.525000
0.525000
0.520833
0.520833
0.516667
0.529167
0.520833
0.520833
0.520833
0.520833
0.525000
0.520833
0.520833
0.525000
0.520833
0.516667
0.520833
0.525000
0.520833
0.520833
0.520833
0.520833
0.520833
0.520833
0.520833
0.516667
0.520833
0.520833
0.520833
0.520833
0.516667
0.520833
0.516667
0.525000
0.516667
0.520833
0.520833
0.520833
0.520833
0.520833
0.516667
0.520833
0.520833
0.516667
0.525000
0.520833
0.516667
0.520833
0.516667
0.525000
0.520833
0.516667
0.520833
0.520833
0.520833
0.520833
0.520833
0.520833
0.520833
0.520833
0.520833
0.520833
0.516667
0.520833
0.516667
0.525000
0.516667
0.520833
0.520833
0.516667
0.525000
0.520833
0.520833
0.520833
0.520833
0.520833
0.520833
0.520833
0.520833
0.520833
0.525000
0.520833
0.520833
0.520833
0.520833
0.520833
0.520833
0.525000
0.520833
0.520833
0.520833
0.520833
0.520833
0.525000
0.516667
0.554167
0.504167
0.520833
0.525000
0.520833
0.520833
0.520833
0.525000
0.520833
0.525000
0.520833
0.520833
0.525000
0.525000
0.520833
0.525000
0.520833
0.520833
0.520833
0.525000
0.520833
0.520833
0.520833
0.520833
0.525000
0.520833
0.520833
0.525000
0.525000
0.525000
0.520833
0.525000
0.520833
0.520833
0.520833
0.525000
0.520833
0.525000
0.520833
0.520833
0.525000
0.520833
0.520833
0.525000
0.520833
0.525000
0.525000
0.520833
0.525000
0.520833
0.525000
0.525000
0.520833
0.525000
0.520833
0.529167
0.520833
0.520833
0.529167
0.525000
0.525000
0.520833
0.520833
0.525000
0.529167
0.520833
0.525000
0.525000
0.520833
0.525000
0.525000
0.525000
0.520833
0.520833
0.533333
0.520833
0.525000
0.525000
0.520833
0.525000
0.525000
0.520833
0.520833
0.525000
0.529167
0.520833
0.554167
0.508333
0.520833
0.558333
0.508333
0.520833
0.520833
0.520833
0.525000
0.520833
0.558333
0.504167
0.520833
0.529167
0.520833
0.525000
0.520833
0.525000
0.525000
0.525000
0.520833
0.525000
0.529167
0.525000
0.525000
0.525000
0.520833
0.525000
0.525000
0.520833
0.525000
0.520833
0.562500
0.504167
0.520833
0.520833
0.525000
0.525000
0.520833
0.525000
0.520833
0.520833
0.525000
0.520833
0.525000
0.520833
0.520833
0.529167
0.520833
0.520833
0.525000
0.520833
0.525000
0.525000
0.525000
0.520833
0.525000
0.525000
0.562500
0.508333
0.525000
0.529167
0.525000
0.525000
0.520833
0.529167
0.520833
0.525000
0.520833
0.529167
0.520833
0.525000
0.525000
0.525000
0.525000
0.516667
0.525000
0.525000
0.516667
0.562500
0.504167
0.525000
0.520833
0.554167
0.508333
0.558333
0.504167
0.525000
0.520833
0.516667
0.558333
0.504167
0.525000
0.516667
0.554167
0.504167
0.550000
0.508333
0.520833
0.516667
0.516667
0.554167
0.508333
0.520833
0.516667
0.550000
0.504167
0.520833
0.425000
0.629167
0.508333
0.516667
0.550000
0.508333
0.550000
0.504167
0.520833
0.520833
0.550000
0.508333
0.520833
0.550000
0.504167
0.550000
0.504167
0.520833
0.520833
0.550000
0.504167
0.516667
0.545833
0.508333
0.545833
0.508333
0.516667
0.525000
0.545833
0.508333
0.541667
0.508333
0.541667
0.508333
0.541667
0.504167
0.545833
0.504167
0.520833
0.520833
0.516667
0.520833
0.525000
0.520833
0.516667
0.550000
0.504167
0.550000
0.504167
0.520833
0.525000
0.520833
0.550000
0.504167
0.520833
0.516667
0.525000
0.520833
0.520833
0.516667
0.379167
0.666667
0.520833
0.520833
0.525000
0.520833
0.520833
0.520833
0.520833
0.520833
0.520833
0.520833
0.520833
0.516667
0.516667
0.525000
0.520833
0.520833
0.516667
0.516667
0.520833
0.525000
0.516667
0.516667
0.516667
0.525000
0.520833
0.520833
0.516667
0.516667
0.520833
0.520833
0.520833
0.512500
0.525000
0.516667
0.520833
0.512500
0.554167
0.500000
0.516667
0.516667
0.529167
0.512500
0.520833
0.516667
0.520833
0.516667
0.520833
0.516667
0.516667
0.525000
0.516667
0.520833
0.516667
0.516667
0.516667
0.520833
0.512500
0.520833
0.516667
0.520833
0.516667
0.516667
0.516667
0.520833
0.520833
0.516667
0.512500
0.520833
0.516667
0.520833
0.516667
0.516667
0.512500
0.554167
0.500000
0.516667
0.516667
0.512500
0.525000
0.516667
0.520833
0.512500
0.516667
0.516667
0.520833
0.516667
0.516667
0.520833
0.516667
0.516667
0.520833
0.516667
0.516667
0.516667
0.520833
0.516667
0.520833
0.516667
0.516667
0.516667
0.520833
0.516667
0.516667
0.520833
0.520833
0.520833
0.516667
0.520833
0.516667
0.516667
0.516667
0.520833
0.516667
0.520833
0.516667
0.520833
0.520833
0.516667
0.516667
0.516667
0.516667
0.520833
0.516667
0.520833
0.512500
0.520833
0.520833
0.516667
0.516667
0.516667
0.516667
0.520833
0.520833
0.516667
0.516667
0.516667
0.520833
0.516667
0.520833
0.516667
0.516667
0.520833
0.520833
0.516667
0.520833
0.516667
0.520833
0.520833
0.516667
0.520833
0.520833
0.516667
0.520833
0.520833
0.516667
0.550000
0.500000
0.516667
0.520833
0.516667
0.520833
0.516667
0.516667
0.520833
0.520833
0.516667
0.520833
0.516667
0.520833
0.516667
0.520833
0.516667
0.520833
0.520833
0.520833
0.520833
0.520833
0.516667
0.520833
0.520833
0.520833
0.520833
0.516667
0.516667
0.520833
0.516667
0.520833
0.520833
0.516667
0.520833
0.516667
0.520833
0.520833
0.520833
0.520833
0.520833
0.520833
0.520833
0.520833
0.520833
0.516667
0.520833
0.520833
0.520833
0.520833
0.520833
0.520833
0.525000
0.516667
0.520833
0.516667
0.525000
0.525000
0.520833
0.516667
0.520833
0.520833
0.520833
0.520833
0.520833
0.520833
0.516667
0.520833
0.520833
0.520833
0.516667
0.520833
0.525000
0.516667
0.520833
0.516667
0.520833
0.516667
0.525000
0.516667
0.520833
0.520833
0.516667
0.520833
0.520833
0.520833
0.520833
0.520833
0.520833
0.520833
0.520833
0.520833
0.520833
0.520833
0.525000
0.516667
0.520833
0.520833
0.520833
0.520833
0.520833
0.520833
0.520833
0.520833
0.516667
0.520833
0.520833
0.520833
0.520833
0.516667
0.520833
0.520833
0.520833
0.516667
0.520833
0.520833
0.525000
0.520833
0.520833
0.516667
0.520833
0.516667
0.525000
0.520833
0.520833
0.520833
0.520833
0.520833
0.525000
0.520833
0.520833
0.520833
0.520833
0.520833
0.520833
0.520833
0.520833
0.520833
0.520833
0.520833
0.520833
0.520833
0.520833
0.516667
0.520833
0.520833
0.520833
0.520833
0.516667
0.520833
0.525000
0.520833
0.525000
0.516667
0.520833
0.520833
0.525000
0.520833
0.520833
0.520833
0.525000
0.520833
0.525000
0.520833
0.520833
0.520833
0.529167
0.520833
0.525000
0.520833
0.520833
0.525000
0.525000
0.520833
0.525000
0.525000
0.520833
0.525000
0.525000
0.520833
0.525000
0.525000
0.525000
0.520833
0.525000
0.520833
0.345833
0.675000
0.520833
0.525000
0.529167
0.525000
0.529167
0.525000
0.525000
0.525000
0.525000
0.525000
0.525000
0.525000
0.529167
0.525000
0.525000
0.525000
0.529167
0.525000
0.525000
0.525000
0.520833
0.525000
0.529167
0.525000
0.525000
0.520833
0.525000
0.525000
0.525000
0.525000
0.525000
0.525000
0.525000
0.525000
0.529167
0.525000
0.525000
0.525000
0.520833
0.529167
0.525000
0.525000
0.525000
0.525000
0.529167
0.525000
0.525000
0.529167
0.525000
0.525000
0.529167
0.525000
0.525000
0.529167
0.529167
0.525000
0.525000
0.525000
0.525000
0.529167
0.529167
0.525000
0.525000
0.520833
0.529167
0.525000
0.525000
0.525000
0.525000
0.525000
0.525000
0.525000
0.529167
0.520833
0.529167
0.525000
0.525000
0.525000
0.529167
0.520833
0.525000
0.525000
0.529167
0.525000
0.529167
0.525000
0.525000
0.525000
0.529167
0.525000
0.525000
0.525000
0.529167
0.525000
0.525000
0.525000
0.525000
0.529167
0.529167
0.525000
0.525000
0.525000
0.529167
0.525000
0.533333
0.525000
0.525000
0.525000
0.529167
0.525000
0.529167
0.525000
0.529167
0.525000
0.525000
0.525000
0.529167
0.525000
0.525000
0.520833
0.529167
0.529167
0.525000
0.525000
0.525000
0.525000
0.529167
0.525000
0.525000
0.525000
0.529167
