0.466667
0.533333
0.504167
0.437500
0.416667
0.470833
0.458333
0.466667
0.554167
0.408333
0.441667
0.533333
0.412500
0.491667
0.441667
0.395833
0.495833
0.833333
0.979167
0.487500
0.387500
0.341667
0.441667
0.833333
0.520833
0.375000
0.504167
0.429167
0.437500
0.433333
0.362500
0.512500
0.450000
0.500000
0.504167
0.537500
0.483333
0.541667
0.462500
0.550000
0.512500
0.483333
0.458333
0.500000
0.520833
0.491667
0.533333
0.466667
0.504167
0.533333
0.483333
0.466667
0.491667
0.487500
0.487500
1.012500
0.395833
0.404167
0.841667
0.429167
0.379167
0.433333
0.458333
0.975000
0.537500
0.441667
0.558333
0.483333
0.941667
0.500000
0.537500
0.550000
0.454167
0.970833
0.566667
0.470833
0.462500
0.483333
0.458333
0.533333
0.450000
0.500000
0.479167
1.012500
0.529167
0.458333
0.554167
0.454167
1.008333
0.554167
0.512500
0.462500
0.970833
0.533333
0.483333
0.520833
0.466667
1.045833
0.466667
0.500000
0.512500
1.012500
0.483333
0.483333
0.704167
0.858333
0.691667
0.791667
0.533333
0.950000
0.491667
0.470833
1.191667
0.325000
1.029167
1.016667
0.958333
0.500000
0.283333
0.245833
0.533333
0.945833
0.529167
0.500000
0.491667
0.920833
0.529167
0.508333
0.512500
0.479167
0.500000
0.979167
0.475000
0.537500
0.495833
0.954167
0.508333
0.487500
0.504167
0.516667
0.966667
0.525000
0.504167
0.504167
0.487500
0.962500
0.483333
0.491667
0.537500
0.495833
0.950000
0.508333
0.487500
0.504167
0.479167
0.475000
0.479167
0.525000
0.504167
0.454167
0.470833
0.512500
0.500000
0.400000
0.554167
0.491667
0.466667
0.500000
0.495833
0.479167
0.500000
0.920833
0.645833
0.350000
0.512500
0.491667
0.479167
0.475000
0.508333
0.491667
0.479167
0.487500
0.483333
0.695833
0.433333
0.345833
0.279167
0.216667
0.508333
0.466667
0.475000
0.479167
0.487500
0.245833
0.237500
0.483333
0.466667
0.491667
0.275000
0.254167
0.529167
0.445833
0.512500
0.979167
0.495833
0.462500
0.500000
0.479167
0.512500
0.475000
0.962500
0.504167
0.491667
0.508333
0.450000
0.537500
0.475000
0.320833
0.295833
0.762500
0.475000
0.487500
0.958333
0.529167
0.554167
0.254167
0.645833
1.016667
0.904167
0.450000
0.495833
0.500000
0.450000
1.033333
0.450000
0.479167
0.504167
0.470833
0.504167
0.291667
0.408333
0.291667
0.475000
0.479167
0.483333
0.487500
0.475000
0.991667
0.495833
0.487500
0.441667
0.466667
0.950000
0.970833
0.508333
0.475000
0.954167
0.495833
0.479167
0.508333
0.487500
0.483333
0.479167
0.983333
0.479167
0.483333
0.470833
0.487500
0.958333
0.479167
0.516667
0.483333
0.537500
0.491667
0.975000
0.437500
0.512500
0.525000
0.500000
0.545833
0.462500
0.520833
0.479167
0.483333
0.475000
0.525000
0.475000
0.504167
0.916667
0.483333
0.495833
0.491667
0.491667
0.441667
0.441667
0.966667
0.529167
0.483333
0.508333
0.366667
0.404167
0.795833
0.420833
0.375000
0.500000
0.450000
0.500000
0.466667
0.966667
0.537500
0.487500
0.533333
0.454167
0.975000
0.495833
0.512500
0.458333
0.575000
0.620833
0.750000
0.445833
0.983333
0.495833
0.479167
0.512500
0.533333
0.437500
0.904167
0.541667
0.491667
0.529167
0.479167
0.450000
0.579167
0.445833
0.475000
0.458333
0.495833
0.525000
0.475000
0.425000
0.487500
0.562500
0.520833
0.470833
0.487500
0.500000
0.533333
0.487500
0.579167
0.450000
0.479167
0.475000
0.504167
0.466667
0.483333
0.470833
0.500000
0.483333
0.504167
0.487500
0.487500
0.470833
0.500000
0.500000
0.483333
0.487500
0.550000
0.941667
0.445833
0.454167
0.520833
0.479167
0.466667
1.020833
0.441667
0.441667
0.541667
0.454167
0.470833
0.441667
0.950000
0.500000
0.500000
0.466667
0.504167
0.450000
0.400000
0.479167
0.504167
0.491667
0.525000
0.462500
0.533333
0.450000
0.533333
0.487500
0.566667
0.529167
0.487500
0.537500
0.483333
0.512500
0.504167
0.545833
0.537500
0.462500
0.516667
0.454167
0.516667
0.537500
0.491667
0.562500
0.429167
0.841667
0.508333
0.500000
0.558333
0.495833
0.425000
0.462500
0.516667
0.462500
0.495833
0.437500
0.529167
0.445833
0.508333
0.454167
0.466667
0.537500
0.487500
0.458333
0.508333
0.504167
0.470833
0.462500
0.429167
0.475000
0.454167
0.441667
0.450000
0.516667
0.479167
0.462500
0.491667
0.470833
0.462500
0.483333
0.512500
0.487500
0.525000
0.537500
0.425000
0.487500
0.475000
0.512500
0.475000
0.487500
0.566667
0.420833
0.475000
0.479167
0.533333
0.458333
0.458333
0.491667
0.491667
0.475000
0.541667
0.529167
0.450000
0.525000
0.516667
0.516667
0.566667
0.483333
0.529167
0.483333
0.512500
0.562500
0.475000
0.525000
0.462500
0.495833
0.525000
0.545833
0.925000
0.470833
0.550000
0.529167
0.470833
0.562500
0.466667
0.570833
0.487500
0.466667
0.558333
0.529167
0.466667
0.562500
0.470833
0.458333
0.558333
0.533333
0.520833
0.483333
0.525000
0.508333
0.629167
0.462500
0.429167
0.437500
0.512500
0.500000
0.487500
0.458333
0.558333
0.500000
0.437500
0.387500
0.537500
0.466667
0.529167
0.483333
0.491667
0.554167
0.429167
0.487500
0.491667
0.487500
0.958333
0.462500
0.537500
0.454167
0.541667
0.483333
0.504167
0.508333
0.487500
0.529167
0.437500
0.425000
0.554167
0.487500
0.450000
0.425000
0.425000
0.416667
0.391667
0.433333
0.466667
0.441667
0.525000
0.404167
0.500000
0.508333
0.825000
0.670833
0.683333
0.795833
0.425000
0.541667
0.395833
0.337500
0.408333
0.412500
0.366667
0.358333
0.516667
0.495833
0.762500
1.066667
0.391667
0.354167
0.641667
0.566667
0.695833
0.670833
0.645833
0.383333
0.458333
0.354167
0.329167
0.383333
1.116667
0.425000
0.329167
0.637500
0.633333
0.358333
0.312500
0.587500
0.416667
0.395833
0.433333
0.450000
0.404167
0.420833
0.437500
0.512500
0.683333
0.462500
0.429167
0.962500
1.116667
0.425000
0.550000
0.420833
0.508333
0.400000
0.437500
0.354167
0.545833
0.475000
0.445833
0.425000
0.858333
0.441667
0.433333
0.475000
0.479167
0.400000
0.462500
0.525000
0.495833
0.458333
0.416667
0.495833
0.375000
0.420833
0.425000
0.458333
0.391667
0.450000
0.620833
0.629167
0.437500
0.475000
0.462500
0.470833
0.462500
0.441667
0.537500
0.495833
0.458333
0.491667
0.466667
0.450000
0.479167
0.466667
0.500000
0.220833
0.254167
0.475000
0.491667
0.479167
0.470833
0.475000
0.462500
0.475000
0.483333
0.466667
0.475000
0.479167
0.470833
0.466667
0.475000
0.504167
0.470833
0.462500
0.470833
0.479167
0.604167
0.325000
0.487500
0.487500
0.475000
0.475000
0.475000
0.462500
0.470833
0.454167
0.470833
0.487500
0.470833
0.475000
0.475000
0.479167
0.945833
0.512500
0.475000
0.470833
0.475000
0.470833
0.462500
0.475000
0.470833
0.466667
0.458333
0.437500
0.491667
0.425000
0.475000
0.433333
0.470833
0.441667
0.487500
0.441667
0.620833
0.641667
0.450000
0.954167
0.479167
0.516667
0.458333
0.479167
0.958333
0.516667
0.475000
0.483333
0.479167
0.475000
0.475000
0.475000
0.479167
0.470833
0.504167
0.487500
0.475000
0.445833
0.412500
0.566667
0.566667
0.491667
0.495833
0.483333
0.470833
0.479167
0.475000
0.454167
0.495833
0.487500
0.462500
0.495833
0.475000
0.470833
0.475000
0.475000
0.479167
0.475000
0.862500
0.312500
0.570833
0.633333
0.958333
0.995833
0.537500
0.550000
0.420833
0.470833
0.475000
0.979167
0.454167
0.458333
0.383333
0.408333
0.445833
0.479167
0.483333
0.491667
0.425000
0.458333
0.491667
0.508333
0.470833
0.487500
0.483333
0.966667
0.516667
0.487500
0.487500
0.483333
0.983333
0.500000
0.479167
0.500000
0.487500
0.475000
0.483333
0.479167
0.500000
0.483333
0.466667
0.991667
0.479167
0.500000
0.483333
0.483333
0.441667
0.458333
0.904167
0.470833
0.483333
0.483333
0.479167
0.487500
0.950000
0.512500
0.487500
0.491667
0.483333
0.483333
0.954167
0.512500
0.483333
0.491667
0.475000
0.483333
0.966667
0.508333
0.483333
0.479167
0.495833
0.475000
0.962500
0.508333
0.483333
0.408333
0.587500
0.495833
0.466667
0.491667
0.487500
0.458333
0.508333
0.491667
0.479167
0.487500
0.483333
0.500000
0.491667
0.487500
0.483333
0.483333
0.966667
0.491667
0.441667
0.412500
0.433333
0.475000
0.441667
0.445833
0.458333
0.445833
0.466667
0.475000
0.441667
0.441667
0.475000
0.883333
0.466667
0.520833
0.491667
0.491667
0.491667
0.487500
0.979167
0.512500
0.487500
0.466667
0.495833
0.429167
0.487500
0.458333
0.954167
0.475000
0.512500
0.437500
0.466667
0.462500
0.475000
0.962500
0.504167
0.487500
0.487500
0.487500
0.983333
0.487500
0.504167
0.479167
0.508333
0.962500
0.987500
0.491667
0.487500
0.487500
0.475000
0.504167
0.495833
0.483333
0.483333
0.495833
0.470833
0.487500
0.495833
0.495833
0.491667
0.470833
0.487500
0.483333
0.508333
0.487500
0.458333
0.495833
0.966667
0.516667
0.483333
0.495833
0.483333
0.483333
0.495833
0.516667
0.483333
0.483333
0.491667
0.483333
0.491667
0.483333
0.975000
0.508333
0.495833
0.487500
0.491667
0.975000
0.504167
0.491667
0.491667
0.491667
0.483333
0.995833
0.500000
0.487500
0.475000
0.483333
0.508333
0.487500
0.987500
0.504167
0.491667
0.491667
0.462500
0.454167
0.491667
0.475000
0.975000
0.508333
0.491667
0.495833
0.491667
0.487500
0.445833
0.912500
0.500000
0.508333
0.408333
0.566667
0.445833
0.450000
0.458333
0.504167
0.475000
0.454167
0.437500
1.108333
0.858333
0.687500
0.683333
0.783333
1.008333
0.370833
0.533333
0.437500
0.770833
0.741667
0.429167
0.895833
0.908333
0.391667
0.345833
0.587500
0.525000
0.358333
0.475000
0.500000
0.629167
0.529167
0.875000
0.395833
0.637500
0.375000
1.012500
0.408333
0.862500
0.587500
0.362500
0.916667
0.516667
0.225000
0.591667
0.395833
0.433333
0.412500
0.441667
0.437500
0.458333
0.483333
0.466667
0.483333
0.433333
0.470833
0.516667
0.437500
0.558333
0.425000
0.475000
0.495833
0.454167
0.429167
0.462500
0.420833
0.425000
0.429167
0.429167
0.429167
0.450000
0.454167
0.441667
0.462500
1.075000
0.433333
0.387500
0.504167
0.445833
0.483333
0.395833
0.391667
0.404167
0.858333
0.483333
0.337500
0.445833
0.433333
0.437500
0.458333
0.454167
0.466667
0.458333
0.466667
0.433333
0.458333
0.479167
0.475000
0.425000
0.437500
0.462500
0.450000
0.458333
0.483333
0.462500
0.500000
0.504167
0.483333
0.466667
0.487500
0.970833
0.508333
0.475000
0.466667
0.566667
0.450000
0.454167
0.491667
0.479167
0.479167
0.454167
0.487500
0.958333
0.500000
0.508333
0.479167
0.475000
0.450000
0.458333
0.475000
0.450000
0.512500
0.483333
0.483333
1.000000
0.466667
0.479167
0.479167
0.429167
0.920833
0.429167
0.475000
0.454167
0.483333
0.462500
0.454167
0.504167
0.516667
0.458333
0.445833
0.462500
0.445833
0.500000
0.504167
0.479167
0.487500
0.483333
0.445833
0.533333
0.500000
0.487500
0.479167
0.462500
0.479167
0.487500
0.495833
0.491667
0.500000
0.479167
0.479167
0.500000
0.475000
0.483333
0.508333
0.504167
0.479167
0.491667
0.479167
0.479167
0.475000
0.483333
1.008333
0.495833
0.479167
0.491667
0.487500
0.479167
0.966667
0.508333
0.487500
0.487500
0.483333
0.479167
0.475000
0.500000
0.495833
0.483333
0.450000
0.433333
0.450000
0.962500
0.504167
0.495833
0.483333
0.445833
0.525000
0.487500
0.466667
0.508333
0.495833
0.495833
0.483333
0.970833
0.500000
0.487500
0.491667
0.491667
0.479167
0.491667
0.962500
0.508333
0.483333
