0.525000
0.504167
0.566667
0.529167
0.537500
0.520833
0.537500
0.520833
0.525000
0.429167
0.095833
0.529167
0.395833
0.295833
0.875000
0.516667
0.520833
0.516667
0.516667
0.516667
0.520833
0.520833
0.529167
0.529167
0.525000
0.525000
0.525000
0.529167
0.525000
0.520833
0.529167
0.525000
0.516667
0.529167
0.525000
0.529167
0.533333
0.533333
0.541667
0.537500
0.433333
0.637500
0.541667
0.545833
0.316667
0.770833
0.183333
0.354167
0.545833
0.537500
0.533333
0.533333
0.541667
0.541667
0.537500
0.529167
0.533333
0.408333
0.641667
0.354167
0.462500
0.229167
0.520833
0.525000
0.520833
0.529167
0.525000
0.529167
0.529167
0.533333
0.529167
0.529167
0.529167
0.529167
0.533333
0.533333
0.533333
0.537500
0.533333
0.541667
0.545833
0.554167
0.541667
0.545833
0.550000
0.545833
0.550000
0.545833
0.550000
0.558333
0.550000
0.558333
0.554167
0.558333
0.558333
0.558333
0.558333
0.566667
0.566667
0.562500
0.558333
0.562500
0.562500
0.558333
0.254167
0.208333
0.650000
0.541667
0.545833
0.270833
0.258333
0.533333
0.525000
0.525000
0.520833
0.520833
0.516667
0.525000
0.516667
0.525000
0.525000
0.529167
0.525000
0.520833
0.520833
0.520833
0.520833
0.525000
0.525000
0.529167
0.529167
0.525000
0.529167
0.525000
0.533333
0.529167
0.529167
0.529167
0.537500
0.541667
0.541667
0.537500
0.537500
0.545833
0.541667
0.545833
0.545833
0.541667
0.545833
0.545833
0.545833
0.537500
0.216667
0.333333
0.537500
0.733333
0.345833
0.537500
0.537500
0.962500
0.116667
0.287500
0.379167
0.125000
0.795833
1.058333
0.525000
0.520833
0.525000
0.520833
0.525000
0.525000
0.533333
0.533333
0.537500
0.533333
0.541667
0.545833
0.554167
0.545833
0.550000
0.554167
0.550000
0.545833
0.554167
0.550000
0.554167
0.558333
0.554167
0.558333
0.554167
0.558333
0.558333
0.554167
0.558333
0.558333
0.566667
0.562500
0.562500
0.562500
0.562500
0.570833
0.570833
0.570833
0.570833
0.575000
0.566667
0.570833
0.562500
0.558333
0.562500
0.566667
0.562500
0.558333
0.562500
0.562500
0.562500
0.566667
0.562500
0.566667
0.558333
0.570833
0.570833
0.570833
0.575000
0.575000
0.570833
0.562500
0.762500
0.354167
0.550000
0.550000
0.554167
0.225000
0.237500
0.508333
0.141667
0.554167
0.550000
0.545833
0.545833
0.537500
0.545833
0.550000
0.550000
0.545833
0.541667
0.545833
0.545833
0.545833
0.545833
0.545833
0.545833
0.545833
0.541667
0.545833
0.545833
0.545833
0.533333
0.537500
0.533333
0.250000
0.283333
0.533333
0.529167
0.537500
0.537500
0.541667
0.550000
0.541667
0.541667
0.550000
0.554167
0.558333
0.554167
0.541667
0.545833
0.541667
0.079167
0.470833
0.545833
0.316667
0.312500
0.433333
0.533333
0.725000
0.337500
1.066667
0.533333
0.387500
0.479167
0.712500
0.529167
0.525000
0.525000
0.525000
0.520833
0.520833
0.520833
0.529167
0.529167
0.529167
0.529167
0.533333
0.533333
0.533333
0.529167
0.525000
0.529167
0.533333
0.529167
0.529167
0.529167
0.533333
0.525000
0.525000
0.525000
0.525000
0.525000
0.525000
0.529167
0.529167
0.525000
0.529167
0.529167
0.533333
0.529167
0.533333
0.545833
0.537500
0.537500
0.537500
0.545833
0.537500
0.470833
0.608333
0.529167
0.533333
0.529167
0.533333
0.533333
0.533333
0.687500
0.370833
0.537500
0.525000
0.525000
0.525000
0.525000
0.520833
0.516667
0.216667
0.312500
0.525000
0.520833
0.525000
0.516667
0.525000
0.529167
0.529167
0.529167
0.525000
0.529167
0.533333
0.529167
0.529167
0.533333
0.529167
0.533333
0.533333
0.533333
0.529167
0.529167
0.525000
0.529167
0.529167
0.529167
0.525000
0.529167
0.529167
0.516667
0.525000
0.516667
0.525000
0.516667
0.520833
0.529167
0.529167
0.520833
0.533333
0.533333
0.533333
0.529167
0.537500
0.529167
0.529167
0.537500
0.529167
0.541667
0.533333
0.529167
0.533333
0.533333
0.533333
0.537500
0.541667
0.533333
0.529167
0.537500
0.533333
0.537500
0.533333
0.541667
0.537500
0.537500
0.533333
0.537500
0.458333
0.608333
0.525000
0.525000
0.529167
0.529167
0.533333
0.533333
0.537500
0.537500
0.529167
0.529167
0.525000
0.516667
0.516667
0.520833
1.037500
0.525000
0.525000
0.529167
0.525000
0.529167
0.533333
0.529167
0.533333
0.533333
0.533333
0.525000
0.529167
0.533333
0.541667
0.533333
0.537500
0.541667
0.541667
0.545833
0.537500
0.537500
0.541667
0.541667
0.541667
0.545833
0.541667
0.550000
0.554167
0.554167
0.550000
0.545833
0.554167
0.554167
0.554167
0.550000
0.550000
0.554167
0.558333
0.550000
0.558333
0.554167
0.554167
0.591667
0.625000
0.608333
0.591667
0.570833
0.308333
0.254167
0.558333
0.550000
0.541667
0.541667
0.550000
0.537500
0.541667
0.533333
0.537500
0.541667
0.537500
0.537500
0.537500
0.541667
0.545833
0.550000
0.545833
0.545833
0.550000
0.558333
0.558333
0.558333
0.550000
0.541667
0.550000
0.545833
0.537500
0.545833
1.062500
0.175000
0.900000
0.525000
0.529167
0.525000
0.529167
0.525000
0.533333
0.537500
0.533333
0.533333
0.533333
0.537500
0.541667
0.541667
0.533333
0.533333
0.533333
0.541667
0.537500
0.666667
0.712500
0.225000
0.537500
0.241667
0.300000
0.329167
0.304167
0.433333
0.537500
0.345833
0.716667
0.529167
0.529167
0.525000
0.529167
0.525000
0.525000
0.525000
0.529167
0.525000
0.520833
0.525000
0.525000
0.533333
0.533333
0.533333
0.533333
0.533333
0.541667
0.541667
0.545833
0.545833
0.545833
0.545833
0.545833
0.541667
0.545833
0.541667
0.533333
0.537500
0.533333
0.533333
0.541667
0.541667
0.537500
0.537500
0.537500
0.541667
0.537500
0.525000
0.533333
0.529167
0.537500
0.541667
0.533333
0.533333
0.533333
0.533333
0.520833
0.533333
0.533333
0.537500
0.529167
0.533333
0.533333
0.537500
0.545833
0.537500
0.541667
0.545833
0.545833
0.550000
0.545833
0.541667
0.537500
0.537500
0.537500
0.541667
0.533333
0.541667
0.541667
0.533333
0.541667
0.537500
0.541667
0.529167
0.525000
0.533333
0.525000
0.520833
0.525000
0.520833
0.520833
0.533333
0.520833
0.529167
0.529167
0.533333
0.533333
0.529167
0.529167
0.533333
0.533333
0.541667
0.529167
0.537500
0.537500
0.541667
0.541667
0.550000
0.558333
0.550000
0.558333
0.554167
0.558333
0.545833
0.537500
0.537500
0.533333
0.529167
0.525000
0.525000
0.533333
0.520833
0.529167
0.608333
0.450000
1.045833
0.516667
0.525000
0.520833
0.525000
0.533333
0.533333
0.525000
0.525000
0.529167
0.525000
0.525000
0.529167
0.525000
0.529167
0.529167
0.533333
0.529167
0.529167
0.533333
0.533333
0.537500
0.529167
0.541667
0.537500
0.537500
0.537500
0.537500
0.541667
0.545833
0.550000
0.545833
0.545833
0.558333
0.554167
0.570833
0.579167
0.254167
0.316667
0.562500
0.554167
0.566667
0.558333
0.637500
0.450000
0.533333
0.537500
0.533333
0.525000
0.375000
0.225000
0.966667
0.520833
0.525000
0.529167
0.529167
0.529167
0.520833
0.529167
0.529167
0.533333
0.533333
0.525000
0.533333
0.537500
0.541667
0.537500
0.541667
0.545833
0.537500
0.529167
0.533333
0.520833
0.525000
0.533333
0.529167
0.529167
0.533333
0.537500
0.533333
0.537500
0.541667
0.550000
0.545833
0.529167
0.533333
0.529167
0.529167
0.525000
0.520833
0.520833
0.512500
0.520833
0.520833
0.512500
0.512500
0.512500
0.512500
0.516667
0.508333
0.508333
0.512500
0.420833
0.604167
0.516667
0.508333
0.508333
0.508333
0.512500
0.512500
0.516667
0.520833
0.516667
0.520833
0.529167
0.525000
0.520833
0.516667
0.520833
0.525000
0.520833
0.520833
0.525000
0.529167
0.525000
0.520833
0.520833
0.516667
0.520833
0.520833
0.516667
0.520833
0.516667
0.512500
0.508333
0.512500
0.625000
0.395833
0.512500
0.516667
0.516667
0.516667
0.516667
0.512500
0.516667
0.520833
0.520833
0.516667
0.525000
0.529167
0.525000
0.525000
0.525000
0.525000
0.529167
0.529167
0.533333
0.529167
0.525000
0.537500
0.529167
0.533333
0.525000
0.537500
0.533333
0.533333
0.545833
0.541667
0.541667
0.541667
0.533333
0.537500
0.537500
0.533333
0.537500
0.533333
0.533333
0.537500
0.533333
0.533333
0.529167
0.529167
0.525000
0.529167
0.520833
0.516667
0.525000
0.525000
0.525000
0.525000
0.520833
0.525000
0.529167
0.529167
0.529167
0.533333
0.541667
0.533333
0.541667
0.562500
0.566667
0.570833
0.554167
0.562500
0.562500
0.554167
0.558333
0.554167
0.554167
0.545833
0.554167
0.562500
0.562500
0.558333
0.554167
0.554167
0.562500
0.554167
0.554167
0.545833
0.545833
0.541667
0.541667
0.537500
0.541667
0.529167
0.537500
0.541667
0.541667
0.537500
0.545833
0.541667
0.545833
0.545833
0.554167
0.558333
0.558333
0.562500
0.554167
0.558333
0.562500
0.554167
0.554167
0.558333
0.558333
0.554167
0.550000
0.550000
0.554167
0.558333
0.554167
0.550000
0.550000
0.554167
0.550000
0.541667
0.254167
0.295833
0.550000
0.541667
0.529167
0.541667
0.533333
0.529167
0.529167
0.520833
0.529167
0.520833
0.520833
0.516667
0.525000
0.245833
0.270833
0.375000
0.666667
0.512500
0.516667
0.516667
0.512500
0.516667
0.520833
0.520833
0.520833
0.525000
0.525000
0.529167
0.525000
0.520833
0.520833
0.525000
0.520833
0.525000
0.525000
0.529167
0.537500
0.537500
0.537500
0.533333
0.533333
0.537500
0.541667
0.537500
0.537500
0.537500
0.533333
0.545833
0.541667
0.537500
0.258333
0.270833
0.533333
0.529167
0.529167
0.525000
0.529167
0.525000
0.529167
0.529167
0.533333
0.533333
0.533333
0.533333
0.537500
0.541667
0.545833
0.537500
0.541667
0.545833
0.545833
0.545833
0.545833
0.545833
0.550000
0.554167
0.550000
0.550000
0.550000
0.541667
0.545833
0.545833
0.541667
0.537500
0.537500
0.537500
0.537500
0.533333
0.541667
0.533333
0.545833
0.533333
0.537500
0.537500
0.537500
0.541667
0.533333
0.537500
0.537500
0.545833
0.550000
0.545833
0.550000
0.554167
0.554167
0.550000
0.554167
0.550000
0.550000
0.550000
0.554167
0.554167
0.554167
0.554167
0.654167
0.445833
0.550000
0.541667
0.545833
0.537500
0.545833
0.537500
0.554167
0.545833
0.545833
0.545833
0.545833
0.545833
0.545833
0.541667
0.537500
0.541667
0.545833
0.541667
0.550000
0.541667
0.545833
0.550000
0.554167
0.550000
0.558333
0.550000
0.554167
0.554167
0.550000
0.550000
0.541667
0.541667
0.545833
0.541667
0.537500
0.533333
0.541667
0.537500
0.537500
0.533333
0.533333
0.533333
0.537500
0.537500
0.537500
0.541667
0.545833
0.550000
0.550000
0.545833
0.558333
0.554167
0.558333
0.566667
0.570833
0.562500
0.562500
0.566667
0.566667
0.562500
0.558333
0.566667
0.575000
0.570833
0.566667
0.566667
0.575000
0.575000
0.575000
0.566667
0.566667
0.579167
0.579167
0.570833
0.579167
0.570833
0.570833
0.562500
0.562500
0.566667
0.562500
0.558333
0.562500
0.562500
0.570833
0.562500
0.558333
0.570833
0.562500
0.562500
0.575000
0.566667
0.570833
0.570833
0.575000
0.562500
0.570833
0.566667
0.566667
0.566667
0.562500
0.566667
0.570833
0.566667
0.566667
0.570833
0.575000
0.575000
0.575000
0.566667
0.570833
0.566667
0.566667
0.575000
0.566667
0.562500
0.566667
0.566667
0.575000
0.575000
0.570833
0.591667
0.587500
0.579167
0.575000
0.579167
0.579167
0.595833
0.587500
0.583333
0.587500
0.600000
0.591667
0.587500
0.587500
0.587500
0.579167
