0.562500
0.562500
0.562500
0.562500
0.562500
0.566667
0.562500
0.629167
0.500000
0.566667
0.558333
0.508333
0.616667
0.562500
0.566667
0.562500
0.562500
0.533333
0.595833
0.566667
0.562500
0.566667
0.562500
0.566667
0.566667
0.566667
0.566667
0.570833
0.562500
0.566667
0.570833
0.566667
0.562500
0.566667
0.562500
0.566667
0.562500
0.562500
0.566667
0.562500
0.562500
0.562500
0.562500
0.562500
0.570833
0.566667
0.566667
0.570833
0.566667
0.570833
0.570833
0.570833
0.570833
0.570833
0.570833
0.575000
0.570833
0.570833
0.570833
0.575000
0.470833
0.670833
0.570833
0.570833
0.566667
0.566667
0.570833
0.570833
0.566667
0.566667
0.570833
0.570833
0.566667
0.566667
0.570833
0.570833
0.570833
0.562500
0.445833
0.166667
0.516667
0.562500
0.562500
0.666667
0.454167
0.033333
0.700000
0.245833
0.383333
0.325000
0.554167
0.562500
0.558333
0.558333
0.558333
0.558333
0.558333
0.558333
0.554167
0.562500
0.558333
0.554167
0.554167
0.558333
0.554167
0.558333
0.566667
0.570833
0.558333
0.566667
0.570833
0.566667
0.575000
0.566667
0.562500
0.566667
0.562500
0.558333
0.558333
0.558333
0.550000
0.558333
0.554167
0.554167
0.550000
0.454167
0.629167
0.554167
0.558333
0.554167
0.554167
0.554167
0.558333
0.558333
0.554167
0.558333
0.537500
0.583333
0.558333
0.566667
0.558333
0.558333
0.566667
0.558333
0.558333
0.562500
0.558333
0.229167
0.333333
0.225000
0.341667
0.204167
0.354167
0.558333
0.562500
0.554167
0.562500
0.558333
0.558333
0.562500
0.566667
0.558333
0.433333
0.683333
0.558333
0.558333
0.558333
0.558333
0.558333
0.562500
0.554167
0.562500
0.558333
0.558333
0.558333
0.562500
0.558333
0.554167
0.558333
0.562500
0.558333
0.558333
0.554167
0.558333
0.558333
0.508333
0.600000
0.558333
0.554167
0.554167
0.558333
0.554167
0.554167
0.558333
0.554167
0.554167
0.558333
0.558333
0.558333
0.558333
0.562500
0.558333
0.562500
0.366667
0.716667
0.579167
0.245833
0.670833
0.550000
0.225000
0.558333
0.558333
0.562500
0.558333
0.479167
0.633333
0.562500
0.554167
0.558333
0.558333
0.558333
0.554167
0.554167
0.508333
0.600000
0.558333
0.554167
0.545833
0.554167
0.554167
0.550000
0.550000
0.558333
0.466667
0.637500
0.554167
0.450000
0.658333
0.562500
0.433333
0.670833
0.500000
0.625000
0.516667
0.612500
0.537500
0.579167
0.558333
0.566667
0.566667
0.370833
0.195833
0.575000
0.566667
0.575000
0.570833
0.570833
0.570833
0.566667
0.566667
0.566667
0.562500
0.566667
0.562500
0.562500
0.508333
0.608333
0.558333
0.558333
0.554167
0.558333
0.554167
0.554167
0.508333
0.595833
0.554167
0.554167
0.554167
0.554167
0.550000
0.454167
0.645833
0.558333
0.558333
0.554167
0.554167
0.387500
0.691667
0.562500
0.558333
0.450000
0.629167
0.558333
0.562500
0.554167
0.558333
0.558333
0.558333
0.391667
0.600000
0.633333
0.558333
0.558333
0.554167
0.550000
0.558333
0.554167
0.554167
0.550000
0.558333
0.550000
0.554167
0.550000
0.554167
0.554167
0.550000
0.550000
0.554167
0.533333
0.537500
0.583333
0.554167
0.550000
0.550000
0.558333
0.554167
0.529167
0.575000
0.554167
0.554167
0.554167
0.554167
0.554167
0.550000
0.500000
0.608333
0.554167
0.545833
0.558333
0.558333
0.558333
0.554167
0.558333
0.562500
0.558333
0.562500
0.558333
0.558333
0.487500
0.454167
0.695833
0.566667
0.558333
0.562500
0.562500
0.562500
0.562500
0.562500
0.566667
0.566667
0.566667
0.566667
0.570833
0.566667
0.537500
0.600000
0.570833
0.570833
0.566667
0.570833
0.450000
0.670833
0.566667
0.445833
0.670833
0.575000
0.404167
0.700000
0.491667
0.554167
0.658333
0.570833
0.487500
0.650000
0.570833
0.400000
0.708333
0.575000
0.575000
0.570833
0.575000
0.566667
0.566667
0.575000
0.570833
0.566667
0.541667
0.462500
0.675000
0.575000
0.570833
0.570833
0.570833
0.570833
0.575000
0.570833
0.570833
0.445833
0.666667
0.575000
0.575000
0.570833
0.566667
0.566667
0.483333
0.658333
0.462500
0.658333
0.575000
0.570833
0.570833
0.570833
0.570833
0.566667
0.570833
0.570833
0.575000
0.512500
0.629167
0.570833
0.570833
0.570833
0.575000
0.575000
0.487500
0.650000
0.516667
0.625000
0.570833
0.491667
0.645833
0.566667
0.575000
0.570833
0.570833
0.570833
0.570833
0.575000
0.570833
0.566667
0.575000
0.570833
0.570833
0.570833
0.566667
0.575000
0.570833
0.570833
0.541667
0.612500
0.400000
0.720833
0.591667
0.583333
0.579167
0.575000
0.458333
0.683333
0.579167
0.579167
0.575000
0.445833
0.670833
0.587500
0.458333
0.658333
0.583333
0.575000
0.575000
0.570833
0.579167
0.575000
0.575000
0.575000
0.575000
0.512500
0.637500
0.575000
0.566667
0.575000
0.575000
0.566667
0.570833
0.566667
0.570833
0.566667
0.575000
0.566667
0.570833
0.437500
0.683333
0.579167
0.579167
0.570833
0.575000
0.391667
0.562500
0.695833
0.587500
0.579167
0.579167
0.575000
0.575000
0.579167
0.579167
0.579167
0.575000
0.529167
0.625000
0.579167
0.579167
0.570833
0.579167
0.575000
0.575000
0.575000
0.570833
0.570833
0.575000
0.570833
0.570833
0.570833
0.566667
0.575000
0.570833
0.558333
0.583333
0.575000
0.575000
0.541667
0.608333
0.575000
0.425000
0.679167
0.587500
0.575000
0.575000
0.575000
0.575000
0.575000
0.570833
0.579167
0.575000
0.575000
0.575000
0.575000
0.579167
0.579167
0.579167
0.583333
0.575000
0.579167
0.583333
0.579167
0.579167
0.579167
0.579167
0.575000
0.579167
0.579167
0.575000
0.579167
0.575000
0.575000
0.575000
0.575000
0.575000
0.570833
0.570833
0.575000
0.570833
0.570833
0.570833
0.570833
0.566667
0.570833
0.566667
0.566667
0.566667
0.566667
0.570833
0.566667
0.566667
0.570833
0.566667
0.566667
0.570833
0.529167
0.612500
0.570833
0.562500
0.583333
0.575000
1.145833
0.570833
0.575000
0.570833
1.150000
0.579167
0.575000
0.570833
0.579167
0.570833
0.575000
0.570833
0.570833
0.570833
0.533333
0.608333
0.566667
0.575000
0.570833
0.575000
0.570833
0.570833
0.570833
0.575000
0.570833
0.570833
0.570833
0.570833
0.570833
0.570833
0.566667
0.570833
0.250000
0.316667
0.566667
0.570833
0.562500
0.566667
0.566667
0.562500
0.566667
0.566667
0.566667
0.566667
0.566667
0.566667
0.570833
0.566667
0.562500
0.570833
0.566667
0.566667
0.566667
0.570833
0.566667
0.566667
0.570833
0.562500
0.566667
0.566667
0.566667
0.566667
0.562500
0.562500
0.566667
0.562500
0.562500
0.562500
0.562500
0.562500
0.566667
0.566667
0.566667
0.562500
0.566667
0.570833
0.566667
0.562500
0.570833
0.562500
0.566667
0.562500
0.566667
0.566667
0.566667
0.566667
0.566667
0.570833
0.566667
0.566667
0.566667
0.570833
0.562500
0.570833
0.566667
0.562500
0.566667
0.566667
0.562500
0.562500
0.562500
0.562500
0.562500
0.558333
0.558333
0.558333
0.558333
0.558333
0.558333
0.562500
0.562500
0.554167
0.558333
0.562500
0.558333
0.558333
0.558333
0.554167
0.558333
0.558333
0.558333
0.554167
0.554167
0.558333
0.558333
0.558333
0.554167
0.562500
0.558333
0.558333
0.558333
0.554167
0.562500
0.558333
0.554167
0.558333
0.558333
0.554167
0.554167
0.558333
0.554167
0.554167
0.558333
0.558333
0.554167
0.554167
0.550000
0.554167
0.558333
0.554167
0.550000
0.554167
0.458333
0.645833
0.558333
0.554167
0.554167
0.354167
0.704167
0.566667
0.558333
0.554167
0.554167
0.554167
0.554167
0.554167
0.554167
0.554167
0.550000
0.229167
0.325000
0.554167
0.550000
0.550000
0.558333
0.554167
0.550000
0.558333
0.558333
0.554167
0.550000
0.562500
0.558333
0.554167
0.562500
0.562500
0.558333
0.562500
0.558333
0.562500
0.558333
0.562500
0.562500
0.554167
0.562500
0.408333
0.679167
0.562500
0.562500
0.558333
0.554167
0.554167
0.554167
0.558333
0.554167
0.554167
0.450000
0.658333
0.554167
0.558333
0.550000
0.554167
0.558333
0.554167
0.550000
0.554167
0.554167
0.554167
0.550000
0.554167
0.550000
0.550000
0.554167
0.554167
0.550000
0.554167
0.554167
0.558333
0.550000
0.558333
0.558333
0.554167
0.558333
0.554167
0.558333
0.554167
0.558333
0.554167
0.550000
0.558333
0.554167
0.554167
0.554167
0.550000
0.554167
0.554167
0.554167
0.550000
0.550000
0.554167
0.554167
0.550000
0.554167
0.554167
0.554167
0.554167
0.550000
0.395833
0.687500
0.558333
0.558333
0.558333
0.550000
0.412500
0.675000
0.558333
0.554167
0.558333
0.558333
0.554167
0.554167
0.558333
0.554167
0.550000
0.554167
0.558333
0.554167
0.554167
0.558333
0.550000
0.495833
0.612500
0.554167
0.491667
0.612500
0.558333
0.520833
0.583333
0.562500
0.550000
0.562500
0.445833
0.650000
0.562500
0.562500
0.562500
0.462500
0.645833
0.562500
0.566667
0.558333
0.562500
0.558333
0.558333
0.566667
0.562500
0.558333
0.562500
0.562500
0.566667
0.566667
0.562500
0.566667
0.566667
0.570833
0.566667
0.570833
0.575000
0.541667
0.600000
0.570833
0.575000
0.575000
0.570833
0.566667
0.558333
0.587500
0.570833
0.566667
0.566667
0.575000
0.570833
0.566667
0.566667
0.570833
0.566667
0.570833
0.566667
0.566667
0.570833
0.570833
0.570833
0.570833
0.566667
0.537500
0.604167
0.575000
0.570833
0.570833
0.575000
0.570833
0.579167
0.575000
0.575000
0.575000
0.575000
0.575000
0.575000
0.575000
0.575000
0.504167
0.637500
0.575000
0.395833
0.720833
0.583333
0.575000
0.579167
0.491667
0.645833
0.575000
0.575000
0.537500
0.612500
0.575000
0.575000
0.575000
0.579167
0.579167
0.575000
0.579167
0.579167
0.575000
0.583333
0.579167
0.575000
0.575000
0.575000
0.395833
0.716667
0.583333
0.512500
0.620833
0.575000
0.575000
0.575000
0.570833
0.575000
0.570833
0.575000
0.575000
0.575000
0.579167
0.575000
0.575000
0.579167
0.583333
0.583333
0.583333
0.470833
0.675000
0.583333
0.583333
0.579167
0.575000
0.575000
0.575000
0.570833
0.575000
0.575000
0.570833
0.575000
0.570833
0.570833
0.579167
0.575000
0.579167
0.579167
0.575000
0.575000
0.579167
0.579167
0.579167
0.579167
0.579167
0.575000
0.575000
0.579167
0.579167
0.575000
0.579167
0.575000
0.579167
0.575000
0.583333
0.579167
0.583333
0.583333
0.579167
0.579167
0.583333
0.583333
0.583333
0.579167
0.579167
0.583333
0.579167
0.579167
0.579167
0.579167
0.579167
0.579167
0.579167
0.579167
0.583333
0.579167
0.575000
0.579167
0.579167
0.579167
0.579167
0.579167
0.579167
0.575000
0.579167
0.575000
0.512500
0.633333
0.575000
0.575000
0.579167
0.575000
0.575000
0.579167
0.575000
0.575000
0.575000
0.579167
0.575000
0.579167
0.575000
0.575000
0.575000
0.575000
0.575000
0.575000
0.575000
0.575000
0.570833
0.575000
0.575000
0.575000
0.575000
0.575000
0.575000
0.579167
0.579167
0.579167
0.575000
