0.520833
0.520833
0.525000
0.525000
0.520833
0.525000
0.520833
0.525000
0.520833
0.520833
0.525000
0.525000
0.520833
0.520833
0.525000
0.525000
0.525000
0.520833
0.525000
0.525000
0.520833
0.520833
0.525000
0.520833
0.520833
0.520833
0.525000
0.520833
0.520833
0.520833
0.520833
0.525000
0.520833
0.525000
0.525000
0.525000
0.520833
0.529167
0.525000
0.525000
0.520833
0.529167
0.525000
0.525000
0.520833
0.529167
0.525000
0.525000
0.525000
0.525000
0.525000
0.525000
0.525000
0.529167
0.529167
0.525000
0.525000
0.525000
0.533333
0.525000
0.529167
0.529167
0.529167
0.529167
0.525000
0.529167
0.525000
0.529167
0.529167
0.525000
0.529167
0.529167
0.525000
0.525000
0.529167
0.525000
0.529167
0.525000
0.525000
0.525000
0.529167
0.520833
0.525000
0.529167
0.525000
0.525000
0.529167
0.525000
0.529167
0.525000
0.525000
0.525000
0.529167
0.525000
0.520833
0.525000
0.529167
0.525000
0.525000
0.525000
0.525000
0.525000
0.525000
0.520833
0.529167
0.525000
0.520833
0.525000
0.525000
0.529167
0.520833
0.525000
0.525000
0.525000
0.520833
0.525000
0.525000
0.529167
0.520833
0.525000
0.525000
0.525000
0.529167
0.520833
0.529167
0.520833
0.529167
0.520833
0.520833
0.529167
0.520833
0.525000
0.520833
0.520833
0.516667
0.525000
0.520833
0.525000
0.520833
0.525000
0.520833
0.525000
0.520833
0.525000
0.525000
0.520833
0.525000
0.525000
0.525000
0.525000
0.520833
0.525000
0.529167
0.520833
0.520833
0.512500
0.537500
0.520833
0.525000
0.525000
0.525000
0.525000
0.520833
0.525000
0.525000
0.525000
0.520833
0.329167
0.654167
0.554167
0.537500
0.529167
0.525000
0.529167
0.525000
0.520833
0.525000
0.529167
0.525000
0.525000
0.525000
0.525000
0.525000
0.525000
0.525000
0.525000
0.529167
0.520833
0.525000
0.525000
0.529167
0.520833
0.525000
0.525000
0.529167
0.529167
0.525000
0.525000
0.525000
0.529167
0.525000
0.525000
0.525000
0.529167
0.520833
0.525000
0.529167
0.525000
0.525000
0.525000
0.525000
0.529167
0.520833
0.525000
0.529167
0.525000
0.525000
0.529167
0.525000
0.529167
0.529167
0.525000
0.529167
0.529167
0.533333
0.525000
0.525000
0.529167
0.529167
0.529167
0.525000
0.529167
0.529167
0.525000
0.525000
0.525000
0.529167
0.529167
0.525000
0.525000
0.533333
0.529167
0.525000
0.529167
0.529167
0.529167
0.525000
0.529167
0.529167
0.529167
0.529167
0.525000
0.533333
0.529167
0.533333
0.525000
0.529167
0.533333
0.533333
0.529167
0.529167
0.533333
0.529167
0.529167
0.529167
0.529167
0.533333
0.529167
0.525000
0.529167
0.529167
0.533333
0.520833
0.529167
0.529167
0.529167
0.529167
0.520833
0.529167
0.525000
0.525000
0.525000
0.525000
0.525000
0.529167
0.520833
0.525000
0.525000
0.529167
0.520833
0.529167
0.525000
0.525000
0.525000
0.525000
0.525000
0.529167
0.525000
0.525000
0.525000
0.529167
0.529167
0.525000
0.529167
0.529167
0.529167
0.525000
0.525000
0.529167
0.533333
0.525000
0.529167
0.529167
0.533333
0.529167
0.525000
0.529167
0.529167
0.533333
0.529167
0.525000
0.533333
0.529167
0.533333
0.525000
0.529167
0.533333
0.529167
0.529167
0.525000
0.533333
0.529167
0.533333
0.525000
0.529167
0.533333
0.529167
0.525000
0.529167
0.529167
0.533333
0.529167
0.529167
0.529167
0.529167
0.525000
0.529167
0.529167
0.529167
0.525000
0.525000
0.529167
0.525000
0.525000
0.525000
0.533333
0.525000
0.525000
0.529167
0.529167
0.529167
0.525000
0.529167
0.529167
0.525000
0.529167
0.525000
0.529167
0.529167
0.525000
0.525000
0.533333
0.529167
0.525000
0.525000
0.529167
0.529167
0.525000
0.525000
0.529167
0.529167
0.525000
0.525000
0.529167
0.529167
0.525000
0.525000
0.529167
0.529167
0.529167
0.525000
0.525000
0.529167
0.529167
0.529167
0.525000
0.529167
0.529167
0.525000
0.529167
0.525000
0.529167
0.529167
0.525000
0.529167
0.529167
0.529167
0.525000
0.529167
0.533333
0.529167
0.525000
0.529167
0.529167
0.529167
0.525000
0.529167
0.529167
0.529167
0.525000
0.529167
0.529167
0.529167
0.529167
0.525000
0.525000
0.529167
0.525000
0.525000
0.525000
0.529167
0.529167
0.525000
0.525000
0.525000
0.529167
0.525000
0.525000
0.525000
0.529167
0.520833
0.525000
0.529167
0.525000
0.529167
0.520833
0.525000
0.529167
0.529167
0.520833
0.525000
0.529167
0.529167
0.520833
0.525000
0.529167
0.529167
0.525000
0.525000
0.529167
0.529167
0.525000
0.525000
0.529167
0.529167
0.525000
0.529167
0.529167
0.529167
0.529167
0.525000
0.525000
0.533333
0.529167
0.525000
0.529167
0.529167
0.529167
0.525000
0.529167
0.529167
0.529167
0.525000
0.529167
0.529167
0.529167
0.529167
0.525000
0.529167
0.529167
0.529167
0.525000
0.529167
0.529167
0.529167
0.520833
0.529167
0.529167
0.525000
0.525000
0.525000
0.529167
0.525000
0.520833
0.529167
0.525000
0.529167
0.520833
0.529167
0.529167
0.529167
0.529167
0.525000
0.529167
0.533333
0.525000
0.525000
0.529167
0.533333
0.525000
0.529167
0.525000
0.533333
0.529167
0.525000
0.529167
0.533333
0.529167
0.529167
0.525000
0.533333
0.529167
0.529167
0.525000
0.533333
0.529167
0.525000
0.529167
0.529167
0.529167
0.525000
0.529167
0.525000
0.533333
0.529167
0.525000
0.525000
0.529167
0.529167
0.525000
0.529167
0.529167
0.525000
0.525000
0.525000
0.529167
0.529167
0.525000
0.529167
0.533333
0.537500
0.529167
0.537500
0.541667
0.541667
0.537500
0.541667
0.541667
0.545833
0.541667
0.545833
0.545833
0.550000
0.545833
0.545833
0.550000
0.550000
0.545833
0.554167
0.550000
0.554167
0.550000
0.554167
0.550000
0.554167
0.550000
0.554167
0.554167
0.550000
0.554167
0.554167
0.558333
0.554167
0.554167
0.554167
0.558333
0.554167
0.550000
0.550000
0.554167
0.550000
0.545833
0.545833
0.545833
0.545833
0.541667
0.537500
0.541667
0.545833
0.541667
0.533333
0.537500
0.537500
0.541667
0.529167
0.537500
0.533333
0.537500
0.533333
0.533333
0.533333
0.533333
0.537500
0.529167
0.529167
0.533333
0.533333
0.533333
0.529167
0.529167
0.533333
0.533333
0.525000
0.529167
0.533333
0.533333
0.525000
0.529167
0.529167
0.533333
0.529167
0.529167
0.529167
0.533333
0.529167
0.525000
0.529167
0.529167
0.529167
0.529167
0.525000
0.529167
0.529167
0.358333
0.695833
0.533333
0.529167
0.529167
0.520833
0.529167
0.525000
0.529167
0.525000
0.525000
0.525000
0.529167
0.525000
0.525000
0.525000
0.529167
0.525000
0.525000
0.529167
0.529167
0.529167
0.525000
0.529167
0.525000
0.533333
0.525000
0.529167
0.525000
0.533333
0.529167
0.520833
0.529167
0.525000
0.529167
0.529167
0.525000
0.529167
0.529167
0.529167
0.525000
0.529167
0.529167
0.529167
0.525000
0.529167
0.529167
0.533333
0.529167
0.529167
0.525000
0.533333
0.529167
0.529167
0.529167
0.529167
0.529167
0.533333
0.525000
0.529167
0.533333
0.533333
0.525000
0.529167
0.529167
0.533333
0.533333
0.529167
0.529167
0.533333
0.533333
0.525000
0.533333
0.529167
0.537500
0.529167
0.533333
0.529167
0.533333
0.533333
0.529167
0.533333
0.537500
0.537500
0.529167
0.533333
0.533333
0.537500
0.529167
0.533333
0.533333
0.537500
0.533333
0.533333
0.533333
0.341667
0.670833
0.579167
0.545833
0.537500
0.541667
0.537500
0.529167
0.537500
0.533333
0.537500
0.533333
0.533333
0.537500
0.537500
0.537500
0.529167
0.537500
0.537500
0.537500
0.533333
0.537500
0.537500
0.537500
0.537500
0.533333
0.537500
0.537500
0.537500
0.533333
0.537500
0.537500
0.537500
0.537500
0.533333
0.537500
0.541667
0.537500
0.533333
0.537500
0.537500
0.537500
0.537500
0.533333
0.533333
0.541667
0.537500
0.533333
0.537500
0.537500
0.537500
0.529167
0.537500
0.537500
0.537500
0.537500
0.529167
0.537500
0.537500
0.537500
0.529167
0.533333
0.537500
0.533333
0.529167
0.533333
0.533333
0.366667
0.641667
0.550000
0.537500
0.537500
0.529167
0.533333
0.533333
0.529167
0.529167
0.529167
0.533333
0.529167
0.529167
0.533333
0.529167
0.537500
0.533333
0.533333
0.533333
0.529167
0.533333
0.533333
0.533333
0.366667
0.654167
0.558333
0.541667
0.533333
0.537500
0.533333
0.537500
0.533333
0.533333
0.537500
0.537500
0.533333
0.533333
0.533333
0.537500
0.533333
0.533333
0.537500
0.533333
0.537500
0.533333
0.533333
0.533333
0.537500
0.533333
0.533333
0.533333
0.537500
0.541667
0.533333
0.533333
0.541667
0.533333
0.537500
0.537500
0.537500
0.541667
0.533333
0.537500
0.537500
0.537500
0.533333
0.533333
0.537500
0.537500
0.529167
0.537500
0.537500
0.533333
0.533333
0.533333
0.537500
0.533333
0.533333
0.533333
0.537500
0.529167
0.533333
0.533333
0.537500
0.533333
0.533333
0.533333
0.537500
0.533333
0.533333
0.533333
0.537500
0.533333
0.533333
0.533333
0.533333
0.537500
0.533333
0.533333
0.533333
0.537500
0.533333
0.529167
0.537500
0.537500
0.529167
0.533333
0.533333
0.537500
0.529167
0.537500
0.533333
0.537500
0.533333
0.533333
0.533333
0.537500
0.537500
0.533333
0.537500
0.537500
0.537500
0.533333
0.533333
0.537500
0.537500
0.537500
0.533333
0.537500
0.541667
0.537500
0.537500
0.537500
0.541667
0.537500
0.537500
0.537500
0.541667
0.537500
0.541667
0.537500
0.537500
0.537500
0.541667
0.533333
0.533333
0.537500
0.541667
0.533333
0.537500
0.537500
0.537500
0.541667
0.533333
0.537500
0.541667
0.541667
0.537500
0.537500
0.541667
0.541667
0.541667
0.537500
0.541667
0.541667
0.541667
0.541667
0.537500
0.541667
0.541667
0.541667
0.541667
0.537500
0.541667
0.541667
0.537500
0.545833
0.541667
0.545833
0.541667
0.541667
0.541667
0.545833
0.545833
0.541667
0.545833
0.545833
0.545833
0.541667
0.541667
0.545833
0.545833
0.545833
0.541667
0.545833
0.545833
0.545833
0.541667
0.545833
0.545833
0.545833
0.541667
0.541667
0.545833
0.545833
0.545833
0.541667
0.545833
0.545833
0.541667
0.545833
0.541667
0.545833
0.545833
0.541667
0.541667
0.545833
0.545833
0.541667
0.541667
0.545833
0.545833
0.537500
0.541667
0.541667
0.545833
0.541667
0.537500
0.541667
0.545833
0.541667
0.541667
0.537500
0.545833
0.545833
0.537500
0.541667
0.545833
0.541667
0.537500
0.541667
0.541667
0.545833
0.537500
0.537500
0.537500
0.537500
0.537500
0.541667
0.537500
0.533333
0.537500
0.537500
0.541667
0.533333
0.537500
0.537500
0.533333
0.537500
0.533333
0.537500
0.537500
0.533333
0.537500
0.537500
0.537500
0.533333
0.537500
0.537500
0.537500
0.533333
0.537500
0.537500
0.537500
0.533333
0.533333
0.537500
0.537500
0.533333
0.533333
0.537500
0.537500
0.537500
0.533333
0.537500
0.537500
0.537500
0.533333
0.537500
0.537500
0.537500
0.533333
0.537500
0.537500
0.537500
0.533333
0.537500
0.533333
0.541667
0.537500
0.533333
0.537500
0.537500
0.537500
0.533333
0.533333
0.541667
0.537500
0.533333
0.533333
0.537500
0.537500
0.533333
0.533333
0.537500
0.537500
0.529167
0.537500
0.533333
0.537500
0.533333
0.537500
0.533333
0.541667
0.529167
0.537500
0.537500
0.537500
0.529167
0.537500
0.537500
0.537500
0.533333
0.537500
0.537500
0.537500
0.537500
0.533333
0.537500
0.541667
0.537500
1.070833
0.541667
0.537500
0.533333
0.537500
0.533333
0.537500
1.070833
0.541667
0.533333
0.537500
0.533333
0.533333
0.537500
